,0
0,
1,
2,
3,
4,
5,
6,
7,
8,
9,
10,
11,
12,
13,
14,
15,
16,1888.235294117647
17,1888.3529411764705
18,1887.8823529411766
19,1887.1764705882354
20,1886.6470588235295
21,1885.0
22,1883.9411764705883
23,1882.9411764705883
24,1881.8235294117646
25,1880.3529411764705
26,1882.0
27,1883.9411764705883
28,1887.0588235294117
29,1890.235294117647
30,1892.9411764705883
31,1893.6470588235295
32,1891.0
33,1885.1764705882354
34,1878.1176470588234
35,1870.9411764705883
36,1864.235294117647
37,1858.7058823529412
38,1855.5882352941176
39,1852.8823529411766
40,1850.7058823529412
41,1849.0588235294117
42,1848.1764705882354
43,1845.235294117647
44,1842.8823529411766
45,1840.235294117647
46,1838.4117647058824
47,1837.0
48,1836.8823529411766
49,1839.1764705882354
50,1844.2941176470588
51,1849.3529411764705
52,1854.4117647058824
53,1860.235294117647
54,1866.3529411764705
55,1872.764705882353
56,1880.1176470588234
57,1887.5294117647059
58,1894.764705882353
59,1900.1176470588234
60,1903.0
61,1903.4117647058824
62,1902.8235294117646
63,1901.3529411764705
64,1899.8235294117646
65,1899.0
66,1897.7058823529412
67,1895.9411764705883
68,1895.5882352941176
69,1895.3529411764705
70,1895.5294117647059
71,1895.8823529411766
72,1891.1764705882354
73,1886.4117647058824
74,1881.5882352941176
75,1877.2941176470588
76,1874.1176470588234
77,1872.7058823529412
78,1891.0
79,1891.235294117647
80,1892.0588235294117
81,1894.1764705882354
82,1896.8823529411766
83,1899.764705882353
84,1902.4705882352941
85,1904.4117647058824
86,1905.8235294117646
87,1905.0
88,1903.2941176470588
89,1903.764705882353
90,1903.4117647058824
91,1902.7058823529412
92,1901.8235294117646
93,1900.764705882353
94,1899.0588235294117
95,1878.5294117647059
96,1877.0
97,1875.5294117647059
98,1872.0588235294117
99,1866.7058823529412
100,1860.235294117647
101,1853.8823529411766
102,1847.8823529411766
103,1843.1176470588234
104,1839.3529411764705
105,1835.4117647058824
106,1833.5294117647059
107,1832.235294117647
108,1831.3529411764705
109,1831.3529411764705
110,1832.3529411764705
111,1833.8823529411766
112,1835.764705882353
113,1837.1176470588234
114,1837.1764705882354
115,1836.9411764705883
116,1836.2941176470588
117,1835.8235294117646
118,1835.4117647058824
119,1836.4117647058824
120,1837.6470588235295
121,1840.4705882352941
122,1843.8235294117646
123,1847.2941176470588
124,1850.1176470588234
125,1852.0
126,1850.9411764705883
127,1847.235294117647
128,1841.9411764705883
129,1836.2941176470588
130,1830.8823529411766
131,1826.5882352941176
132,1823.6470588235295
133,1822.7058823529412
134,1822.6470588235295
135,1822.8823529411766
136,1822.4117647058824
137,1822.2941176470588
138,1821.9411764705883
139,1821.8235294117646
140,1821.5294117647059
141,1821.4705882352941
142,1816.7058823529412
143,1814.1764705882354
144,1813.6470588235295
145,1814.5294117647059
146,1815.7058823529412
147,1817.235294117647
148,1819.5294117647059
149,1822.5882352941176
150,1826.235294117647
151,1829.7058823529412
152,1833.0
153,1834.8235294117646
154,1834.8235294117646
155,1831.8823529411766
156,1826.9411764705883
157,1821.764705882353
158,1816.6470588235295
159,1817.1176470588234
160,1816.764705882353
161,1816.9411764705883
162,1816.3529411764705
163,1816.0
164,1815.4705882352941
165,1815.4117647058824
166,1813.5882352941176
167,1809.8235294117646
168,1806.1176470588234
169,1802.8823529411766
170,1800.8823529411766
171,1800.0
172,1800.764705882353
173,1803.5294117647059
174,1806.3529411764705
175,1809.4705882352941
176,1813.3529411764705
177,1818.5294117647059
178,1822.9411764705883
179,1828.3529411764705
180,1834.5294117647059
181,1838.7058823529412
182,1840.0588235294117
183,1840.0
184,1839.8823529411766
185,1839.1764705882354
186,1837.8235294117646
187,1835.9411764705883
188,1833.764705882353
189,1840.1176470588234
190,1845.7058823529412
191,1850.6470588235295
192,1854.4117647058824
193,1856.0588235294117
194,1855.9411764705883
195,1854.8823529411766
196,1854.0
197,1852.5882352941176
198,1852.6470588235295
199,1854.3529411764705
200,1857.8235294117646
201,1861.5294117647059
202,1865.3529411764705
203,1870.1764705882354
204,1875.2941176470588
205,1881.0588235294117
206,1878.5882352941176
207,1876.3529411764705
208,1874.1176470588234
209,1872.2941176470588
210,1870.4705882352941
211,1868.8823529411766
212,1867.1764705882354
213,1865.764705882353
214,1865.0
215,1865.4705882352941
216,1866.1764705882354
217,1867.0588235294117
218,1867.9411764705883
219,1869.0588235294117
220,1868.4117647058824
221,1866.4117647058824
222,1863.5882352941176
223,1860.4117647058824
224,1857.235294117647
225,1855.2941176470588
226,1853.9411764705883
227,1853.5294117647059
228,1854.235294117647
229,1855.4705882352941
230,1856.5294117647059
231,1857.1176470588234
232,1857.235294117647
233,1856.9411764705883
234,1856.5294117647059
235,1849.5882352941176
236,1843.1176470588234
237,1838.3529411764705
238,1834.5882352941176
239,1831.5294117647059
240,1828.3529411764705
241,1825.6470588235295
242,1823.5882352941176
243,1822.5882352941176
244,1822.4705882352941
245,1821.7058823529412
246,1821.5882352941176
247,1819.5882352941176
248,1815.764705882353
249,1810.235294117647
250,1803.8235294117646
251,1797.5882352941176
252,1798.764705882353
253,1799.7058823529412
254,1799.7058823529412
255,1799.6470588235295
256,1798.4705882352941
257,1797.235294117647
258,1796.2941176470588
259,1795.8823529411766
260,1793.4705882352941
261,1789.9411764705883
262,1786.235294117647
263,1782.9411764705883
264,1780.764705882353
265,1780.764705882353
266,1781.0
267,1781.3529411764705
268,1781.0
269,1780.8235294117646
270,1781.235294117647
271,1783.1176470588234
272,1785.5882352941176
273,1788.5882352941176
274,1792.1176470588234
275,1794.5882352941176
276,1794.7058823529412
277,1795.0
278,1795.8235294117646
279,1797.3529411764705
280,1798.5882352941176
281,1800.1764705882354
282,1806.2941176470588
283,1814.2941176470588
284,1822.5294117647059
285,1831.4705882352941
286,1839.235294117647
287,1844.5882352941176
288,1847.5294117647059
289,1849.0
290,1850.235294117647
291,1851.1176470588234
292,1852.235294117647
293,1854.0
294,1857.4705882352941
295,1861.0588235294117
296,1864.4117647058824
297,1868.1176470588234
298,1872.9411764705883
299,1873.5294117647059
300,1873.5294117647059
301,1873.7058823529412
302,1874.0588235294117
303,1873.8823529411766
304,1874.6470588235295
305,1872.4117647058824
306,1871.1176470588234
307,1870.4705882352941
308,1870.4117647058824
309,1871.5294117647059
310,1873.764705882353
311,1876.0
312,1877.764705882353
313,1879.5294117647059
314,1879.7058823529412
315,1877.4705882352941
316,1872.9411764705883
317,1867.6470588235295
318,1862.0
319,1856.0
320,1851.5294117647059
321,1847.7058823529412
322,1848.1764705882354
323,1848.7058823529412
324,1848.4117647058824
325,1847.7058823529412
326,1846.5294117647059
327,1845.5294117647059
328,1840.4117647058824
329,1835.7058823529412
330,1830.8235294117646
331,1827.0588235294117
332,1824.8823529411766
333,1823.9411764705883
334,1823.8823529411766
335,1825.4705882352941
336,1828.4117647058824
337,1832.0588235294117
338,1836.7058823529412
339,1841.0588235294117
340,1845.1764705882354
341,1848.9411764705883
342,1851.0588235294117
343,1851.5294117647059
344,1849.7058823529412
345,1850.8235294117646
346,1851.5882352941176
347,1852.5882352941176
348,1853.5294117647059
349,1854.7058823529412
350,1855.764705882353
351,1857.3529411764705
352,1858.4117647058824
353,1856.1764705882354
354,1851.5882352941176
355,1844.5882352941176
356,1837.5882352941176
357,1831.0
358,1824.8823529411766
359,1820.6470588235295
360,1818.235294117647
361,1816.9411764705883
362,1816.235294117647
363,1816.1176470588234
364,1817.1764705882354
365,1819.1764705882354
366,1821.0
367,1822.6470588235295
368,1823.5294117647059
369,1823.1176470588234
370,1824.0588235294117
371,1825.0588235294117
372,1827.235294117647
373,1828.8235294117646
374,1830.8235294117646
375,1830.5882352941176
376,1831.0
377,1831.5294117647059
378,1832.764705882353
379,1833.4705882352941
380,1833.1764705882354
381,1830.3529411764705
382,1824.5294117647059
383,1817.0
384,1809.0
385,1801.0588235294117
386,1794.1764705882354
387,1788.4705882352941
388,1784.5882352941176
389,1781.4117647058824
390,1779.3529411764705
391,1777.3529411764705
392,1779.0
393,1780.6470588235295
394,1782.0
395,1783.1764705882354
396,1784.4705882352941
397,1786.1764705882354
398,1787.1764705882354
399,1790.6470588235295
400,1795.2941176470588
401,1800.8235294117646
402,1806.2941176470588
403,1812.5882352941176
404,1819.4705882352941
405,1826.5882352941176
406,1833.8823529411766
407,1840.7058823529412
408,1846.235294117647
409,1849.235294117647
410,1849.4705882352941
411,1847.5882352941176
412,1844.4117647058824
413,1841.2941176470588
414,1839.0588235294117
415,1838.5882352941176
416,1837.764705882353
417,1837.6470588235295
418,1837.3529411764705
419,1837.5882352941176
420,1837.7058823529412
421,1835.1764705882354
422,1830.8235294117646
423,1825.4117647058824
424,1819.764705882353
425,1814.764705882353
426,1811.6470588235295
427,1810.2941176470588
428,1813.764705882353
429,1815.4705882352941
430,1818.1764705882354
431,1821.0
432,1825.0588235294117
433,1829.8235294117646
434,1833.8235294117646
435,1838.0588235294117
436,1840.8823529411766
437,1841.235294117647
438,1841.8235294117646
439,1841.8823529411766
440,1841.4705882352941
441,1840.8235294117646
442,1840.0
443,1838.2941176470588
444,1837.1176470588234
445,1836.2941176470588
446,1838.3529411764705
447,1839.235294117647
448,1838.6470588235295
449,1836.5882352941176
450,1832.2941176470588
451,1827.9411764705883
452,1823.3529411764705
453,1819.3529411764705
454,1816.9411764705883
455,1816.764705882353
456,1818.0
457,1820.1176470588234
458,1822.5882352941176
459,1825.9411764705883
460,1830.7058823529412
461,1835.5882352941176
462,1836.6470588235295
463,1837.4117647058824
464,1837.7058823529412
465,1838.235294117647
466,1838.1764705882354
467,1838.5294117647059
468,1840.6470588235295
469,1843.8235294117646
470,1847.0588235294117
471,1851.1176470588234
472,1854.7058823529412
473,1858.7058823529412
474,1862.4117647058824
475,1864.8235294117646
476,1864.5882352941176
477,1861.7058823529412
478,1857.1176470588234
479,1852.1764705882354
480,1847.4705882352941
481,1843.5882352941176
482,1841.0
483,1839.3529411764705
484,1839.235294117647
485,1838.5882352941176
486,1837.7058823529412
487,1837.8235294117646
488,1838.0
489,1838.6470588235295
490,1838.764705882353
491,1832.8823529411766
492,1828.1176470588234
493,1825.4117647058824
494,1824.4705882352941
495,1824.6470588235295
496,1825.2941176470588
497,1826.235294117647
498,1828.0
499,1830.0588235294117
500,1833.0588235294117
501,1835.4117647058824
502,1836.3529411764705
503,1836.3529411764705
504,1833.8235294117646
505,1829.0588235294117
506,1822.8823529411766
507,1816.6470588235295
508,1816.9411764705883
509,1817.5294117647059
510,1818.2941176470588
511,1818.3529411764705
512,1818.2941176470588
513,1818.5294117647059
514,1819.1764705882354
515,1820.0
516,1818.6470588235295
517,1815.1176470588234
518,1811.0588235294117
519,1807.235294117647
520,1803.1764705882354
521,1800.9411764705883
522,1800.1176470588234
523,1799.764705882353
524,1800.0
525,1800.8823529411766
526,1802.8823529411766
527,1805.764705882353
528,1809.5294117647059
529,1813.4117647058824
530,1816.764705882353
531,1818.0588235294117
532,1816.2941176470588
533,1813.5294117647059
534,1810.8235294117646
535,1808.1176470588234
536,1805.0588235294117
537,1802.235294117647
538,1805.4117647058824
539,1809.3529411764705
540,1813.2941176470588
541,1817.2941176470588
542,1820.2941176470588
543,1821.0588235294117
544,1819.1764705882354
545,1816.0
546,1812.5294117647059
547,1809.3529411764705
548,1807.2941176470588
549,1806.8823529411766
550,1808.5882352941176
551,1810.8823529411766
552,1812.764705882353
553,1815.235294117647
554,1818.8823529411766
555,1817.3529411764705
556,1815.235294117647
557,1814.0588235294117
558,1812.4117647058824
559,1810.8823529411766
560,1809.6470588235295
561,1808.0
562,1805.6470588235295
563,1802.2941176470588
564,1797.6470588235295
565,1794.0
566,1791.9411764705883
567,1790.5882352941176
568,1790.4705882352941
569,1791.764705882353
570,1792.8235294117646
571,1791.7058823529412
572,1789.4705882352941
573,1786.5882352941176
574,1782.9411764705883
575,1779.8235294117646
576,1777.6470588235295
577,1776.8235294117646
578,1777.8823529411766
579,1780.0
580,1783.235294117647
581,1787.8823529411766
582,1792.2941176470588
583,1796.5294117647059
584,1797.6470588235295
585,1798.1764705882354
586,1798.0588235294117
587,1798.0588235294117
588,1799.4705882352941
589,1801.0588235294117
590,1802.8823529411766
591,1805.4705882352941
592,1808.764705882353
593,1812.8235294117646
594,1817.1176470588234
595,1821.235294117647
596,1825.8823529411766
597,1830.235294117647
598,1833.235294117647
599,1834.3529411764705
600,1833.6470588235295
601,1835.3529411764705
602,1837.0588235294117
603,1839.4705882352941
604,1841.8235294117646
605,1844.0
606,1846.1764705882354
607,1848.1176470588234
608,1850.235294117647
609,1850.3529411764705
610,1847.5882352941176
611,1842.5294117647059
612,1837.4117647058824
613,1832.2941176470588
614,1827.6470588235295
615,1824.8235294117646
616,1823.1764705882354
617,1821.5294117647059
618,1818.8823529411766
619,1815.5882352941176
620,1812.7058823529412
621,1810.1764705882354
622,1808.1176470588234
623,1806.764705882353
624,1805.9411764705883
625,1803.8235294117646
626,1801.5294117647059
627,1799.3529411764705
628,1798.5882352941176
629,1797.6470588235295
630,1797.1176470588234
631,1800.7058823529412
632,1804.4705882352941
633,1808.4705882352941
634,1813.5294117647059
635,1819.4705882352941
636,1825.5294117647059
637,1829.9411764705883
638,1832.5294117647059
639,1833.5294117647059
640,1833.2941176470588
641,1832.5294117647059
642,1832.4117647058824
643,1833.6470588235295
644,1836.7058823529412
645,1839.235294117647
646,1841.7058823529412
647,1844.0
648,1842.764705882353
649,1841.7058823529412
650,1841.0588235294117
651,1840.1176470588234
652,1839.235294117647
653,1838.1764705882354
654,1836.5882352941176
655,1836.5882352941176
656,1837.5882352941176
657,1841.2941176470588
658,1843.5882352941176
659,1846.5294117647059
660,1849.7058823529412
661,1853.8235294117646
662,1861.6470588235295
663,1866.7058823529412
664,1871.4117647058824
665,1874.4117647058824
666,1875.4117647058824
667,1874.6470588235295
668,1873.5294117647059
669,1872.5882352941176
670,1872.5294117647059
671,1874.3529411764705
672,1875.8235294117646
673,1877.5882352941176
674,1877.0588235294117
675,1878.1764705882354
676,1879.1764705882354
677,1876.8823529411766
678,1872.0588235294117
679,1863.7058823529412
680,1858.1764705882354
681,1853.5294117647059
682,1850.1764705882354
683,1848.3529411764705
684,1847.5882352941176
685,1847.4117647058824
686,1847.0588235294117
687,1847.1176470588234
688,1847.6470588235295
689,1849.0588235294117
690,1850.9411764705883
691,1852.5294117647059
692,1853.8823529411766
693,1853.7058823529412
694,1855.2941176470588
695,1856.7058823529412
696,1858.3529411764705
697,1860.5294117647059
698,1862.1176470588234
699,1863.4705882352941
700,1865.0
701,1865.5294117647059
702,1865.8823529411766
703,1866.4705882352941
704,1866.0588235294117
705,1863.1764705882354
706,1862.0588235294117
707,1855.3529411764705
708,1848.764705882353
709,1842.1764705882354
710,1836.6470588235295
711,1832.4117647058824
712,1829.2941176470588
713,1826.4705882352941
714,1823.6470588235295
715,1821.4117647058824
716,1820.235294117647
717,1819.235294117647
718,1819.7058823529412
719,1820.235294117647
720,1821.235294117647
721,1821.2941176470588
722,1821.4705882352941
723,1818.1176470588234
724,1818.764705882353
725,1819.1176470588234
726,1820.5882352941176
727,1823.0
728,1825.6470588235295
729,1828.5294117647059
730,1831.4705882352941
731,1833.5294117647059
732,1833.764705882353
733,1831.4705882352941
734,1827.5882352941176
735,1823.764705882353
736,1819.9411764705883
737,1816.1176470588234
738,1814.1176470588234
739,1813.7058823529412
740,1814.4705882352941
741,1815.6470588235295
742,1818.1176470588234
743,1820.764705882353
744,1822.7058823529412
745,1824.7058823529412
746,1826.4705882352941
747,1823.4117647058824
748,1821.8823529411766
749,1821.8235294117646
750,1824.2941176470588
751,1827.6470588235295
752,1830.764705882353
753,1834.764705882353
754,1839.5882352941176
755,1845.0588235294117
756,1850.8823529411766
757,1856.3529411764705
758,1861.8235294117646
759,1866.8235294117646
760,1866.0588235294117
761,1862.8823529411766
762,1857.5294117647059
763,1851.4705882352941
764,1851.0588235294117
765,1850.0588235294117
766,1849.4117647058824
767,1847.8823529411766
768,1846.0
769,1844.1764705882354
770,1842.5882352941176
771,1841.6470588235295
772,1838.5294117647059
773,1834.0588235294117
774,1829.7058823529412
775,1826.2941176470588
776,1822.7058823529412
777,1824.0
778,1827.4705882352941
779,1830.8235294117646
780,1836.0588235294117
781,1840.235294117647
782,1845.0
783,1849.9411764705883
784,1855.235294117647
785,1860.5294117647059
786,1865.5294117647059
787,1868.7058823529412
788,1868.9411764705883
789,1868.764705882353
790,1868.7058823529412
791,1868.6470588235295
792,1867.764705882353
793,1867.2941176470588
794,1867.5294117647059
795,1868.3529411764705
796,1871.3529411764705
797,1872.9411764705883
798,1874.1764705882354
799,1873.5294117647059
800,1870.7058823529412
801,1866.5294117647059
802,1862.5882352941176
803,1858.5294117647059
804,1854.9411764705883
805,1852.7058823529412
806,1851.8823529411766
807,1851.6470588235295
808,1851.235294117647
809,1851.4705882352941
810,1852.0588235294117
811,1853.3529411764705
812,1854.0588235294117
813,1854.1764705882354
814,1854.0
815,1854.4117647058824
816,1854.1176470588234
817,1850.7058823529412
818,1847.764705882353
819,1844.5294117647059
820,1842.1764705882354
821,1840.8235294117646
822,1840.1176470588234
823,1840.5294117647059
824,1841.1764705882354
825,1842.1764705882354
826,1842.9411764705883
827,1841.7058823529412
828,1838.3529411764705
829,1832.8823529411766
830,1826.9411764705883
831,1821.5882352941176
832,1816.0588235294117
833,1812.235294117647
834,1813.235294117647
835,1814.235294117647
836,1814.235294117647
837,1813.4117647058824
838,1812.4705882352941
839,1811.5294117647059
840,1809.2941176470588
841,1806.8823529411766
842,1804.235294117647
843,1801.8823529411766
844,1801.3529411764705
845,1800.2941176470588
846,1800.2941176470588
847,1800.764705882353
848,1801.8235294117646
849,1803.9411764705883
850,1807.1764705882354
851,1810.5294117647059
852,1814.3529411764705
853,1818.7058823529412
854,1822.8235294117646
855,1825.5294117647059
856,1826.2941176470588
857,1827.1176470588234
858,1827.9411764705883
859,1829.1176470588234
860,1830.0588235294117
861,1830.235294117647
862,1831.1176470588234
863,1832.5294117647059
864,1837.8823529411766
865,1841.6470588235295
866,1842.9411764705883
867,1841.8823529411766
868,1839.6470588235295
869,1837.0
870,1835.1764705882354
871,1837.0588235294117
872,1837.0
873,1837.6470588235295
874,1838.5294117647059
875,1840.1764705882354
876,1842.6470588235295
877,1846.0
878,1850.4117647058824
879,1855.7058823529412
880,1860.4117647058824
881,1861.1176470588234
882,1861.6470588235295
883,1862.1764705882354
884,1862.0
885,1863.0588235294117
886,1864.5882352941176
887,1863.764705882353
888,1860.1764705882354
889,1860.3529411764705
890,1861.4705882352941
891,1862.8823529411766
892,1863.2941176470588
893,1862.7058823529412
894,1860.3529411764705
895,1857.0
896,1853.4705882352941
897,1851.235294117647
898,1849.4117647058824
899,1848.8235294117646
900,1850.0588235294117
901,1853.0588235294117
902,1855.1764705882354
903,1857.0
904,1860.9411764705883
905,1864.9411764705883
906,1868.5882352941176
907,1871.0588235294117
908,1872.9411764705883
909,1874.0
910,1870.235294117647
911,1867.0588235294117
912,1863.764705882353
913,1860.2941176470588
914,1855.9411764705883
915,1851.8235294117646
916,1849.0
917,1846.7058823529412
918,1845.1764705882354
919,1844.235294117647
920,1842.8235294117646
921,1840.7058823529412
922,1835.8235294117646
923,1829.0588235294117
924,1818.764705882353
925,1811.6470588235295
926,1805.5294117647059
927,1804.4117647058824
928,1803.764705882353
929,1803.7058823529412
930,1803.2941176470588
931,1803.4117647058824
932,1803.8235294117646
933,1806.8235294117646
934,1807.6470588235295
935,1806.6470588235295
936,1805.0588235294117
937,1804.0
938,1803.4705882352941
939,1805.235294117647
940,1808.1176470588234
941,1814.7058823529412
942,1817.7058823529412
943,1823.764705882353
944,1827.764705882353
945,1832.235294117647
946,1836.764705882353
947,1841.3529411764705
948,1845.764705882353
949,1848.6470588235295
950,1846.5882352941176
951,1845.0
952,1843.9411764705883
953,1843.5882352941176
954,1843.3529411764705
955,1843.3529411764705
956,1843.3529411764705
957,1845.4705882352941
958,1847.7058823529412
959,1850.764705882353
960,1850.235294117647
961,1850.4705882352941
962,1848.4117647058824
963,1845.2941176470588
964,1841.6470588235295
965,1838.2941176470588
966,1835.9411764705883
967,1834.8235294117646
968,1834.8235294117646
969,1835.8823529411766
970,1836.9411764705883
971,1838.764705882353
972,1841.5882352941176
973,1845.235294117647
974,1847.2941176470588
975,1849.1764705882354
976,1850.6470588235295
977,1851.5294117647059
978,1851.5294117647059
979,1851.6470588235295
980,1848.8823529411766
981,1847.0
982,1845.8823529411766
983,1845.5294117647059
984,1846.0588235294117
985,1846.8235294117646
986,1847.2941176470588
987,1846.9411764705883
988,1844.4705882352941
989,1839.8823529411766
990,1833.764705882353
991,1826.9411764705883
992,1820.7058823529412
993,1814.8235294117646
994,1810.4117647058824
995,1808.0
996,1807.7058823529412
997,1810.9411764705883
998,1814.7058823529412
999,1818.6470588235295
1000,1822.5294117647059
1001,1826.0
1002,1828.8823529411766
1003,1828.1764705882354
1004,1828.235294117647
1005,1830.0
1006,1833.0588235294117
1007,1836.8823529411766
1008,1840.9411764705883
1009,1845.8235294117646
1010,1851.5294117647059
1011,1857.5882352941176
1012,1864.235294117647
1013,1869.8235294117646
1014,1874.764705882353
1015,1877.8235294117646
1016,1878.5294117647059
1017,1877.2941176470588
1018,1874.9411764705883
1019,1872.1764705882354
1020,1873.1764705882354
1021,1874.0
1022,1874.2941176470588
1023,1874.4117647058824
1024,1874.5882352941176
1025,1874.4705882352941
1026,1873.8823529411766
1027,1870.5882352941176
1028,1865.6470588235295
1029,1859.5294117647059
1030,1853.0
1031,1847.1176470588234
1032,1842.5294117647059
1033,1839.0588235294117
1034,1837.0
1035,1835.5294117647059
1036,1834.5882352941176
1037,1833.7058823529412
1038,1833.764705882353
1039,1835.0588235294117
1040,1836.4705882352941
1041,1837.6470588235295
1042,1838.5294117647059
1043,1838.0
1044,1838.1176470588234
1045,1837.6470588235295
1046,1837.0588235294117
1047,1836.9411764705883
1048,1836.764705882353
1049,1836.4705882352941
1050,1839.235294117647
1051,1842.8823529411766
1052,1846.235294117647
1053,1849.8235294117646
1054,1852.235294117647
1055,1852.6470588235295
1056,1850.0
1057,1845.6470588235295
1058,1840.5294117647059
1059,1835.9411764705883
1060,1831.9411764705883
1061,1829.235294117647
1062,1831.5294117647059
1063,1831.4117647058824
1064,1831.4117647058824
1065,1831.4117647058824
1066,1832.9411764705883
1067,1832.3529411764705
1068,1831.1764705882354
1069,1830.2941176470588
1070,1829.1176470588234
1071,1828.2941176470588
1072,1827.1764705882354
1073,1825.2941176470588
1074,1824.4117647058824
1075,1822.8823529411766
1076,1820.764705882353
1077,1819.4117647058824
1078,1818.8823529411766
1079,1815.8823529411766
1080,1816.4117647058824
1081,1817.1764705882354
1082,1817.764705882353
1083,1819.9411764705883
1084,1816.8823529411766
1085,1812.7058823529412
1086,1808.0588235294117
1087,1803.2941176470588
1088,1799.8235294117646
1089,1797.235294117647
1090,1797.9411764705883
1091,1799.4705882352941
1092,1801.764705882353
1093,1804.7058823529412
1094,1807.9411764705883
1095,1811.1764705882354
1096,1809.235294117647
1097,1806.9411764705883
1098,1804.9411764705883
1099,1803.3529411764705
1100,1799.0
1101,1799.5294117647059
1102,1800.4705882352941
1103,1802.0588235294117
1104,1805.1764705882354
1105,1807.5882352941176
1106,1811.6470588235295
1107,1815.2941176470588
1108,1818.235294117647
1109,1820.4117647058824
1110,1821.4705882352941
1111,1819.8235294117646
1112,1815.9411764705883
1113,1816.0588235294117
1114,1815.9411764705883
1115,1815.4117647058824
1116,1814.8235294117646
1117,1814.7058823529412
1118,1814.0
1119,1813.6470588235295
1120,1817.5882352941176
1121,1819.5294117647059
1122,1819.764705882353
1123,1817.3529411764705
1124,1813.7058823529412
1125,1810.1764705882354
1126,1807.8823529411766
1127,1806.0
1128,1806.5882352941176
1129,1808.0
1130,1809.2941176470588
1131,1810.8823529411766
1132,1813.1176470588234
1133,1816.0588235294117
1134,1819.4117647058824
1135,1823.1764705882354
1136,1826.5294117647059
1137,1824.3529411764705
1138,1821.7058823529412
1139,1819.5882352941176
1140,1818.1176470588234
1141,1817.8823529411766
1142,1818.0588235294117
1143,1820.4705882352941
1144,1824.5294117647059
1145,1829.0
1146,1834.235294117647
1147,1839.8823529411766
1148,1844.8823529411766
1149,1848.0
1150,1848.8235294117646
1151,1847.2941176470588
1152,1845.0588235294117
1153,1842.8823529411766
1154,1841.764705882353
1155,1841.5882352941176
1156,1842.9411764705883
1157,1844.6470588235295
1158,1845.7058823529412
1159,1845.9411764705883
1160,1844.4117647058824
1161,1842.764705882353
1162,1840.764705882353
1163,1838.6470588235295
1164,1836.4705882352941
1165,1834.1764705882354
1166,1830.1176470588234
1167,1827.764705882353
1168,1826.6470588235295
1169,1825.8235294117646
1170,1825.1764705882354
1171,1825.2941176470588
1172,1826.8823529411766
1173,1828.764705882353
1174,1831.5882352941176
1175,1834.6470588235295
1176,1837.5294117647059
1177,1839.1764705882354
1178,1837.8823529411766
1179,1834.1176470588234
1180,1829.8235294117646
1181,1825.0588235294117
1182,1820.8823529411766
1183,1820.0
1184,1818.8823529411766
1185,1817.235294117647
1186,1815.1764705882354
1187,1813.235294117647
1188,1811.1176470588234
1189,1809.5882352941176
1190,1805.4117647058824
1191,1799.6470588235295
1192,1793.5882352941176
1193,1789.0588235294117
1194,1784.764705882353
1195,1782.7058823529412
1196,1782.235294117647
1197,1782.235294117647
1198,1783.1176470588234
1199,1785.0588235294117
1200,1788.1176470588234
1201,1792.1176470588234
1202,1797.1764705882354
1203,1802.7058823529412
1204,1808.0588235294117
1205,1811.5294117647059
1206,1811.5882352941176
1207,1812.4705882352941
1208,1814.1764705882354
1209,1816.1764705882354
1210,1817.9411764705883
1211,1820.1176470588234
1212,1822.8235294117646
1213,1827.5882352941176
1214,1832.235294117647
1215,1836.3529411764705
1216,1836.5882352941176
1217,1835.3529411764705
1218,1831.8823529411766
1219,1826.9411764705883
1220,1821.9411764705883
1221,1817.0588235294117
1222,1813.3529411764705
1223,1811.3529411764705
1224,1811.235294117647
1225,1811.764705882353
1226,1812.4705882352941
1227,1814.4117647058824
1228,1817.8823529411766
1229,1821.4117647058824
1230,1823.5294117647059
1231,1825.4705882352941
1232,1827.0
1233,1829.8235294117646
1234,1831.235294117647
1235,1832.0
1236,1835.4117647058824
1237,1838.764705882353
1238,1842.764705882353
1239,1847.764705882353
1240,1853.1176470588234
1241,1857.9411764705883
1242,1862.0
1243,1864.4117647058824
1244,1864.1764705882354
1245,1860.764705882353
1246,1855.9411764705883
1247,1850.2941176470588
1248,1845.1764705882354
1249,1840.1764705882354
1250,1837.4117647058824
1251,1836.235294117647
1252,1836.5294117647059
1253,1835.235294117647
1254,1834.4705882352941
1255,1833.8235294117646
1256,1833.1764705882354
1257,1832.5294117647059
1258,1831.764705882353
1259,1827.0588235294117
1260,1824.235294117647
1261,1822.6470588235295
1262,1823.235294117647
1263,1824.5294117647059
1264,1826.1176470588234
1265,1828.2941176470588
1266,1831.2941176470588
1267,1834.4117647058824
1268,1837.6470588235295
1269,1841.235294117647
1270,1844.4117647058824
1271,1845.235294117647
1272,1842.3529411764705
1273,1836.0588235294117
1274,1828.235294117647
1275,1819.8235294117646
1276,1815.5882352941176
1277,1811.5294117647059
1278,1807.8235294117646
1279,1803.7058823529412
1280,1799.764705882353
1281,1795.9411764705883
1282,1792.1176470588234
1283,1792.5882352941176
1284,1791.0588235294117
1285,1788.5882352941176
1286,1786.0588235294117
1287,1783.1176470588234
1288,1783.0
1289,1785.7058823529412
1290,1791.1764705882354
1291,1797.9411764705883
1292,1805.9411764705883
1293,1811.9411764705883
1294,1820.7058823529412
1295,1829.8823529411766
1296,1839.5294117647059
1297,1848.4117647058824
1298,1857.235294117647
1299,1864.4117647058824
1300,1865.5294117647059
1301,1866.5294117647059
1302,1867.4705882352941
1303,1868.1176470588234
1304,1869.1764705882354
1305,1869.8823529411766
1306,1869.8823529411766
1307,1870.3529411764705
1308,1870.8823529411766
1309,1870.3529411764705
1310,1871.7058823529412
1311,1869.0588235294117
1312,1863.9411764705883
1313,1857.6470588235295
1314,1851.2941176470588
1315,1844.9411764705883
1316,1839.4117647058824
1317,1835.5882352941176
1318,1833.4705882352941
1319,1831.764705882353
1320,1830.764705882353
1321,1830.5882352941176
1322,1831.235294117647
1323,1833.764705882353
1324,1836.0588235294117
1325,1837.9411764705883
1326,1840.5294117647059
1327,1842.0
1328,1842.764705882353
1329,1841.1764705882354
1330,1839.2941176470588
1331,1837.4117647058824
1332,1835.4705882352941
1333,1834.2941176470588
1334,1833.9411764705883
1335,1834.1764705882354
1336,1835.0588235294117
1337,1836.235294117647
1338,1836.764705882353
1339,1835.3529411764705
1340,1831.2941176470588
1341,1826.5882352941176
1342,1821.5882352941176
1343,1816.6470588235295
1344,1813.6470588235295
1345,1812.1176470588234
1346,1814.9411764705883
1347,1818.5882352941176
1348,1822.4705882352941
1349,1826.4705882352941
1350,1830.3529411764705
1351,1834.1176470588234
1352,1835.3529411764705
1353,1836.4117647058824
1354,1836.9411764705883
1355,1837.5882352941176
1356,1835.8235294117646
1357,1838.7058823529412
1358,1841.3529411764705
1359,1844.235294117647
1360,1847.4117647058824
1361,1851.1176470588234
1362,1855.4705882352941
1363,1859.1176470588234
1364,1863.0
1365,1866.764705882353
1366,1869.2941176470588
1367,1869.8823529411766
1368,1869.2941176470588
1369,1869.7058823529412
1370,1870.0
1371,1870.3529411764705
1372,1870.5882352941176
1373,1874.235294117647
1374,1874.235294117647
1375,1874.1176470588234
1376,1876.8823529411766
1377,1878.7058823529412
1378,1877.6470588235295
1379,1875.0
1380,1871.8823529411766
1381,1868.5294117647059
1382,1865.4117647058824
1383,1863.1176470588234
1384,1862.7058823529412
1385,1861.7058823529412
1386,1860.8823529411766
1387,1859.764705882353
1388,1858.8823529411766
1389,1859.4705882352941
1390,1860.0
1391,1861.2941176470588
1392,1863.0
1393,1861.1176470588234
1394,1858.3529411764705
1395,1855.8823529411766
1396,1853.1764705882354
1397,1850.764705882353
1398,1848.6470588235295
1399,1849.1764705882354
1400,1850.9411764705883
1401,1852.8823529411766
1402,1855.9411764705883
1403,1859.1764705882354
1404,1861.8823529411766
1405,1863.4705882352941
1406,1862.5882352941176
1407,1860.2941176470588
1408,1857.0588235294117
1409,1853.8235294117646
1410,1851.5294117647059
1411,1850.3529411764705
1412,1849.2941176470588
1413,1851.2941176470588
1414,1853.9411764705883
1415,1856.4117647058824
1416,1857.235294117647
1417,1858.2941176470588
1418,1859.1764705882354
1419,1859.8823529411766
1420,1860.764705882353
1421,1861.235294117647
1422,1858.3529411764705
1423,1858.0
1424,1858.2941176470588
1425,1858.2941176470588
1426,1857.8235294117646
1427,1856.8823529411766
1428,1856.4117647058824
1429,1857.9411764705883
1430,1857.7058823529412
1431,1857.5294117647059
1432,1856.764705882353
1433,1854.6470588235295
1434,1850.1176470588234
1435,1844.3529411764705
1436,1837.764705882353
1437,1831.5882352941176
1438,1826.8823529411766
1439,1826.764705882353
1440,1825.3529411764705
1441,1825.1176470588234
1442,1824.9411764705883
1443,1825.764705882353
1444,1827.2941176470588
1445,1826.2941176470588
1446,1823.5294117647059
1447,1820.3529411764705
1448,1816.8823529411766
1449,1814.6470588235295
1450,1813.1176470588234
1451,1813.0
1452,1813.7058823529412
1453,1815.8823529411766
1454,1818.0
1455,1821.1764705882354
1456,1825.1764705882354
1457,1829.4705882352941
1458,1833.3529411764705
1459,1837.3529411764705
1460,1840.3529411764705
1461,1841.6470588235295
1462,1843.3529411764705
1463,1844.3529411764705
1464,1845.1176470588234
1465,1845.5882352941176
1466,1845.1764705882354
1467,1844.6470588235295
1468,1844.4117647058824
1469,1847.7058823529412
1470,1849.8823529411766
1471,1851.5882352941176
1472,1850.6470588235295
1473,1846.1764705882354
1474,1839.8823529411766
1475,1832.1764705882354
1476,1824.2941176470588
1477,1816.8823529411766
1478,1811.0
1479,1807.235294117647
1480,1805.5294117647059
1481,1804.9411764705883
1482,1806.1176470588234
1483,1808.5882352941176
1484,1812.4117647058824
1485,1816.4117647058824
1486,1817.9411764705883
1487,1819.4117647058824
1488,1820.1176470588234
1489,1820.5294117647059
1490,1821.2941176470588
1491,1821.6470588235295
1492,1822.235294117647
1493,1824.4117647058824
1494,1827.4117647058824
1495,1831.7058823529412
1496,1835.764705882353
1497,1839.7058823529412
1498,1843.235294117647
1499,1842.5882352941176
1500,1841.7058823529412
1501,1838.1176470588234
1502,1833.235294117647
1503,1826.5294117647059
1504,1820.1764705882354
1505,1815.0588235294117
1506,1812.0588235294117
1507,1809.8823529411766
1508,1808.4705882352941
1509,1809.8823529411766
1510,1811.5882352941176
1511,1813.2941176470588
1512,1814.235294117647
1513,1815.5882352941176
1514,1816.4117647058824
1515,1815.1176470588234
1516,1816.2941176470588
1517,1816.8235294117646
1518,1819.0588235294117
1519,1820.2941176470588
1520,1821.235294117647
1521,1822.0
1522,1823.0588235294117
1523,1824.8823529411766
1524,1828.5294117647059
1525,1833.0
1526,1835.7058823529412
1527,1836.2941176470588
1528,1834.3529411764705
1529,1830.2941176470588
1530,1824.8823529411766
1531,1819.764705882353
1532,1817.1764705882354
1533,1815.1176470588234
1534,1813.764705882353
1535,1812.4705882352941
1536,1813.1176470588234
1537,1815.0588235294117
1538,1818.235294117647
1539,1820.1176470588234
1540,1819.764705882353
1541,1818.1764705882354
1542,1817.0588235294117
1543,1815.8823529411766
1544,1816.0588235294117
1545,1817.8823529411766
1546,1821.4117647058824
1547,1825.4117647058824
1548,1829.2941176470588
1549,1832.5882352941176
1550,1837.0588235294117
1551,1841.235294117647
1552,1845.3529411764705
1553,1849.1176470588234
1554,1852.1764705882354
1555,1853.2941176470588
1556,1854.1176470588234
1557,1854.7058823529412
1558,1855.235294117647
1559,1855.1176470588234
1560,1855.0588235294117
1561,1854.7058823529412
1562,1857.9411764705883
1563,1861.2941176470588
1564,1865.4117647058824
1565,1869.235294117647
1566,1872.3529411764705
1567,1874.0588235294117
1568,1873.8235294117646
1569,1872.6470588235295
1570,1871.0588235294117
1571,1869.8823529411766
1572,1869.7058823529412
1573,1870.5294117647059
1574,1872.764705882353
1575,1875.6470588235295
1576,1879.0
1577,1882.0
1578,1885.8235294117646
1579,1886.764705882353
1580,1887.4117647058824
1581,1887.1176470588234
1582,1887.0
1583,1886.9411764705883
1584,1885.764705882353
1585,1884.3529411764705
1586,1882.9411764705883
1587,1882.1176470588234
1588,1881.1764705882354
1589,1881.0
1590,1881.5294117647059
1591,1882.7058823529412
1592,1883.4705882352941
1593,1883.8823529411766
1594,1883.5294117647059
1595,1881.3529411764705
1596,1877.1764705882354
1597,1871.7058823529412
1598,1866.1764705882354
1599,1861.3529411764705
1600,1857.4117647058824
1601,1854.4117647058824
1602,1853.6470588235295
1603,1853.4117647058824
1604,1853.1176470588234
1605,1853.1176470588234
1606,1853.0588235294117
1607,1853.235294117647
1608,1846.9411764705883
1609,1840.8823529411766
1610,1835.1176470588234
1611,1830.8823529411766
1612,1827.7058823529412
1613,1824.7058823529412
1614,1822.6470588235295
1615,1822.1764705882354
1616,1821.1176470588234
1617,1820.6470588235295
1618,1821.235294117647
1619,1821.5882352941176
1620,1821.6470588235295
1621,1821.4705882352941
1622,1819.5882352941176
1623,1815.5294117647059
1624,1809.764705882353
1625,1808.9411764705883
1626,1808.0
1627,1807.4117647058824
1628,1806.235294117647
1629,1805.5882352941176
1630,1806.2941176470588
1631,1806.4117647058824
1632,1810.4117647058824
1633,1813.8235294117646
1634,1815.0588235294117
1635,1814.0
1636,1811.8823529411766
1637,1809.8823529411766
1638,1808.1176470588234
1639,1807.5294117647059
1640,1808.4705882352941
1641,1807.8235294117646
1642,1809.764705882353
1643,1811.9411764705883
1644,1814.4705882352941
1645,1817.9411764705883
1646,1821.4705882352941
1647,1825.235294117647
1648,1829.8823529411766
1649,1828.8823529411766
1650,1827.9411764705883
1651,1827.1176470588234
1652,1826.764705882353
1653,1826.764705882353
1654,1826.9411764705883
1655,1827.5294117647059
1656,1829.0
1657,1830.5294117647059
1658,1834.4117647058824
1659,1836.7058823529412
1660,1838.4117647058824
1661,1838.3529411764705
1662,1836.0588235294117
1663,1831.6470588235295
1664,1826.1176470588234
1665,1820.7058823529412
1666,1815.8823529411766
1667,1811.5882352941176
1668,1808.4705882352941
1669,1807.3529411764705
1670,1806.8235294117646
1671,1806.8235294117646
1672,1807.5294117647059
1673,1808.6470588235295
1674,1810.4117647058824
1675,1812.0588235294117
1676,1813.2941176470588
1677,1814.4117647058824
1678,1813.8235294117646
1679,1814.8823529411766
1680,1817.8235294117646
1681,1821.0
1682,1824.764705882353
1683,1829.1764705882354
1684,1834.6470588235295
1685,1841.1176470588234
1686,1847.2941176470588
1687,1853.0
1688,1857.5882352941176
1689,1859.9411764705883
1690,1860.1764705882354
1691,1858.4705882352941
1692,1856.4117647058824
1693,1854.5294117647059
1694,1853.3529411764705
1695,1854.764705882353
1696,1856.235294117647
1697,1858.0
1698,1859.5294117647059
1699,1859.8235294117646
1700,1860.6470588235295
1701,1859.5294117647059
1702,1856.4117647058824
1703,1851.6470588235295
1704,1846.8823529411766
1705,1842.5882352941176
1706,1839.4117647058824
1707,1837.4705882352941
1708,1836.4117647058824
1709,1835.3529411764705
1710,1837.0
1711,1835.9411764705883
1712,1835.9411764705883
1713,1836.4117647058824
1714,1837.4117647058824
1715,1838.5882352941176
1716,1840.0
1717,1839.5294117647059
1718,1838.4117647058824
1719,1837.1176470588234
1720,1836.0588235294117
1721,1835.2941176470588
1722,1834.6470588235295
1723,1833.9411764705883
1724,1833.0
1725,1836.3529411764705
1726,1840.1176470588234
1727,1841.2941176470588
1728,1844.1764705882354
1729,1845.0588235294117
1730,1844.0588235294117
1731,1841.6470588235295
1732,1839.6470588235295
1733,1837.9411764705883
1734,1837.0
1735,1838.0588235294117
1736,1839.5882352941176
1737,1840.9411764705883
1738,1841.7058823529412
1739,1842.3529411764705
1740,1844.0
1741,1846.1764705882354
1742,1844.9411764705883
1743,1843.5294117647059
1744,1841.764705882353
1745,1839.9411764705883
1746,1838.7058823529412
1747,1837.1764705882354
1748,1838.235294117647
1749,1839.4117647058824
1750,1841.2941176470588
1751,1843.8823529411766
1752,1846.8823529411766
1753,1850.9411764705883
1754,1855.4117647058824
1755,1859.8823529411766
1756,1863.4117647058824
1757,1864.1764705882354
1758,1863.7058823529412
1759,1862.4705882352941
1760,1861.4705882352941
1761,1860.5294117647059
1762,1860.5882352941176
1763,1861.0588235294117
1764,1863.8823529411766
1765,1864.0588235294117
1766,1865.235294117647
1767,1866.5882352941176
1768,1867.8823529411766
1769,1868.8235294117646
1770,1869.2941176470588
1771,1864.5882352941176
1772,1860.4705882352941
1773,1857.5882352941176
1774,1856.8235294117646
1775,1856.8823529411766
1776,1856.235294117647
1777,1856.0588235294117
1778,1856.6470588235295
1779,1857.764705882353
1780,1859.4117647058824
1781,1859.9411764705883
1782,1860.6470588235295
1783,1859.764705882353
1784,1856.5294117647059
1785,1851.5882352941176
1786,1845.5882352941176
1787,1839.764705882353
1788,1839.5294117647059
1789,1839.6470588235295
1790,1839.5882352941176
1791,1839.3529411764705
1792,1838.3529411764705
1793,1837.9411764705883
1794,1837.5882352941176
1795,1835.7058823529412
1796,1831.8235294117646
1797,1826.8235294117646
1798,1821.5294117647059
1799,1816.235294117647
1800,1811.4705882352941
1801,1808.5882352941176
1802,1806.9411764705883
1803,1805.9411764705883
1804,1805.7058823529412
1805,1805.5882352941176
1806,1806.2941176470588
1807,1808.1764705882354
1808,1810.4117647058824
1809,1813.4117647058824
1810,1816.0588235294117
1811,1817.0
1812,1820.5294117647059
1813,1821.1764705882354
1814,1821.235294117647
1815,1821.7058823529412
1816,1822.0
1817,1822.5294117647059
1818,1827.0
1819,1831.8235294117646
1820,1836.4117647058824
1821,1840.3529411764705
1822,1843.1176470588234
1823,1843.5294117647059
1824,1841.3529411764705
1825,1837.5294117647059
1826,1833.764705882353
1827,1829.764705882353
1828,1827.235294117647
1829,1822.764705882353
1830,1822.8823529411766
1831,1824.0588235294117
1832,1824.1764705882354
1833,1824.5882352941176
1834,1825.235294117647
1835,1822.2941176470588
1836,1819.7058823529412
1837,1817.4705882352941
1838,1815.0
1839,1812.8235294117646
1840,1810.2941176470588
1841,1809.8235294117646
1842,1810.5882352941176
1843,1811.1764705882354
1844,1812.8823529411766
1845,1815.2941176470588
1846,1819.1176470588234
1847,1823.1176470588234
1848,1827.4705882352941
1849,1832.7058823529412
1850,1837.2941176470588
1851,1840.0
1852,1840.235294117647
1853,1838.4705882352941
1854,1836.1764705882354
1855,1834.5882352941176
1856,1833.7058823529412
1857,1834.235294117647
1858,1834.6470588235295
1859,1834.3529411764705
1860,1833.8235294117646
1861,1833.3529411764705
1862,1832.4117647058824
1863,1831.764705882353
1864,1827.4705882352941
1865,1823.0
1866,1818.7058823529412
1867,1814.9411764705883
1868,1813.235294117647
1869,1812.4705882352941
1870,1812.3529411764705
1871,1812.6470588235295
1872,1812.8235294117646
1873,1814.4117647058824
1874,1816.4705882352941
1875,1818.4705882352941
1876,1820.9411764705883
1877,1822.9411764705883
1878,1823.8235294117646
1879,1823.0588235294117
1880,1820.5294117647059
1881,1821.0588235294117
1882,1821.8235294117646
1883,1822.764705882353
1884,1823.764705882353
1885,1825.0588235294117
1886,1827.0588235294117
1887,1829.3529411764705
1888,1832.3529411764705
1889,1834.4705882352941
1890,1834.1764705882354
1891,1832.1176470588234
1892,1829.4705882352941
1893,1827.4117647058824
1894,1825.7058823529412
1895,1824.2941176470588
1896,1824.4705882352941
1897,1823.2941176470588
1898,1820.6470588235295
1899,1816.2941176470588
1900,1810.9411764705883
1901,1806.4117647058824
1902,1801.6470588235295
1903,1797.5294117647059
1904,1793.764705882353
1905,1789.2941176470588
1906,1785.3529411764705
1907,1781.235294117647
1908,1778.5882352941176
1909,1776.1764705882354
1910,1773.764705882353
1911,1776.4117647058824
1912,1780.1764705882354
1913,1784.235294117647
1914,1790.3529411764705
1915,1798.4117647058824
1916,1807.1176470588234
1917,1816.2941176470588
1918,1823.7058823529412
1919,1829.764705882353
1920,1834.5294117647059
1921,1839.4705882352941
1922,1844.2941176470588
1923,1849.7058823529412
1924,1856.2941176470588
1925,1862.2941176470588
1926,1866.8823529411766
1927,1870.3529411764705
1928,1869.0
1929,1867.1176470588234
1930,1865.5294117647059
1931,1864.0588235294117
1932,1862.0588235294117
1933,1860.0
1934,1856.4117647058824
1935,1854.0588235294117
1936,1852.3529411764705
1937,1850.9411764705883
1938,1849.3529411764705
1939,1848.9411764705883
1940,1848.6470588235295
1941,1849.4117647058824
1942,1851.1764705882354
1943,1854.5294117647059
1944,1858.3529411764705
1945,1861.0588235294117
1946,1862.6470588235295
1947,1862.2941176470588
1948,1860.6470588235295
1949,1858.8823529411766
1950,1857.8823529411766
1951,1861.4117647058824
1952,1862.0
1953,1862.2941176470588
1954,1861.8823529411766
1955,1860.7058823529412
1956,1859.1176470588234
1957,1857.8823529411766
1958,1854.4705882352941
1959,1849.764705882353
1960,1845.0
1961,1840.4117647058824
1962,1837.5882352941176
1963,1835.2941176470588
1964,1833.8823529411766
1965,1831.7058823529412
1966,1828.8823529411766
1967,1826.0588235294117
1968,1821.0588235294117
1969,1819.4117647058824
1970,1819.0
1971,1819.6470588235295
1972,1820.6470588235295
1973,1821.4117647058824
1974,1819.8823529411766
1975,1818.764705882353
1976,1818.5882352941176
1977,1818.1176470588234
1978,1818.0
1979,1817.7058823529412
1980,1818.1176470588234
1981,1819.235294117647
1982,1822.0
1983,1826.0588235294117
1984,1829.235294117647
1985,1831.235294117647
1986,1831.4117647058824
1987,1830.2941176470588
1988,1829.235294117647
1989,1828.3529411764705
1990,1827.4705882352941
1991,1828.7058823529412
1992,1829.9411764705883
1993,1830.4705882352941
1994,1830.3529411764705
1995,1828.764705882353
1996,1828.5882352941176
1997,1828.9411764705883
1998,1829.235294117647
1999,1829.4117647058824
2000,1829.1764705882354
2001,1829.0
2002,1828.5882352941176
2003,1828.0
2004,1830.7058823529412
2005,1834.1176470588234
2006,1838.5294117647059
2007,1843.4705882352941
2008,1847.9411764705883
2009,1852.764705882353
2010,1857.6470588235295
2011,1862.7058823529412
2012,1867.6470588235295
2013,1869.4705882352941
2014,1870.1176470588234
2015,1869.3529411764705
2016,1868.6470588235295
2017,1868.0588235294117
2018,1868.764705882353
2019,1870.1764705882354
2020,1872.7058823529412
2021,1871.6470588235295
2022,1870.0588235294117
2023,1868.4117647058824
2024,1866.7058823529412
2025,1865.0588235294117
2026,1863.2941176470588
2027,1859.5294117647059
2028,1856.1764705882354
2029,1854.4117647058824
2030,1854.0588235294117
2031,1854.235294117647
2032,1855.0
2033,1855.6470588235295
2034,1856.9411764705883
2035,1858.235294117647
2036,1860.5882352941176
2037,1863.764705882353
2038,1866.4117647058824
2039,1867.764705882353
2040,1867.0588235294117
2041,1864.0588235294117
2042,1859.7058823529412
2043,1855.7058823529412
2044,1854.7058823529412
2045,1853.8235294117646
2046,1853.0588235294117
2047,1852.4705882352941
2048,1852.0588235294117
2049,1851.5294117647059
2050,1851.7058823529412
2051,1850.8823529411766
2052,1848.6470588235295
2053,1843.9411764705883
2054,1838.5294117647059
2055,1834.0
2056,1830.7058823529412
2057,1828.8235294117646
2058,1828.5882352941176
2059,1827.764705882353
2060,1826.8235294117646
2061,1824.8823529411766
2062,1823.4705882352941
2063,1822.7058823529412
2064,1822.0
2065,1821.3529411764705
2066,1821.0
2067,1819.4705882352941
2068,1817.4705882352941
2069,1815.9411764705883
2070,1815.6470588235295
2071,1816.1764705882354
2072,1817.2941176470588
2073,1818.764705882353
2074,1820.0588235294117
2075,1821.9411764705883
2076,1825.9411764705883
2077,1830.1764705882354
2078,1834.8235294117646
2079,1837.8823529411766
2080,1838.4705882352941
2081,1837.764705882353
2082,1836.235294117647
2083,1834.3529411764705
2084,1833.0588235294117
2085,1832.9411764705883
2086,1833.4117647058824
2087,1832.5294117647059
2088,1830.1176470588234
2089,1827.1764705882354
2090,1824.8823529411766
2091,1822.9411764705883
2092,1820.5294117647059
2093,1818.1764705882354
2094,1815.6470588235295
2095,1814.8235294117646
2096,1812.5882352941176
2097,1813.1176470588234
2098,1814.2941176470588
2099,1815.235294117647
2100,1816.4705882352941
2101,1818.1764705882354
2102,1819.9411764705883
2103,1822.2941176470588
2104,1826.5882352941176
2105,1831.9411764705883
2106,1837.3529411764705
2107,1840.764705882353
2108,1842.3529411764705
2109,1842.7058823529412
2110,1842.4705882352941
2111,1842.1764705882354
2112,1838.4705882352941
2113,1839.4117647058824
2114,1838.8823529411766
2115,1842.5294117647059
2116,1842.4117647058824
2117,1842.5882352941176
2118,1843.4705882352941
2119,1843.8823529411766
2120,1842.2941176470588
2121,1840.2941176470588
2122,1838.4117647058824
2123,1836.7058823529412
2124,1836.4117647058824
2125,1837.2941176470588
2126,1839.4117647058824
2127,1841.5882352941176
2128,1844.6470588235295
2129,1850.4117647058824
2130,1854.8235294117646
2131,1859.1176470588234
2132,1859.7058823529412
2133,1863.8823529411766
2134,1867.0
2135,1867.3529411764705
2136,1867.3529411764705
2137,1867.8823529411766
2138,1868.4117647058824
2139,1868.764705882353
2140,1869.5294117647059
2141,1870.1176470588234
2142,1871.1176470588234
2143,1871.9411764705883
2144,1873.4705882352941
2145,1872.5294117647059
2146,1868.4705882352941
2147,1861.9411764705883
2148,1854.5294117647059
2149,1846.7058823529412
2150,1839.5294117647059
2151,1833.1764705882354
2152,1829.1176470588234
2153,1825.5882352941176
2154,1823.0
2155,1821.1176470588234
2156,1820.1764705882354
2157,1820.1764705882354
2158,1820.6470588235295
2159,1821.4117647058824
2160,1821.5882352941176
2161,1820.6470588235295
2162,1820.3529411764705
2163,1820.4117647058824
2164,1821.1176470588234
2165,1822.1176470588234
2166,1823.5882352941176
2167,1826.4705882352941
2168,1829.9411764705883
2169,1833.0588235294117
2170,1836.6470588235295
2171,1839.8823529411766
2172,1842.4117647058824
2173,1842.3529411764705
2174,1839.1176470588234
2175,1832.5882352941176
2176,1824.2941176470588
2177,1816.1176470588234
2178,1808.0588235294117
2179,1801.3529411764705
2180,1796.7058823529412
2181,1793.5294117647059
2182,1791.1764705882354
2183,1789.0
2184,1786.9411764705883
2185,1785.4705882352941
2186,1784.5294117647059
2187,1783.5294117647059
2188,1783.0
2189,1782.1764705882354
2190,1781.8235294117646
2191,1783.1764705882354
2192,1787.1764705882354
2193,1792.8235294117646
2194,1799.1764705882354
2195,1806.235294117647
2196,1813.764705882353
2197,1822.235294117647
2198,1830.2941176470588
2199,1838.0588235294117
2200,1844.8235294117646
2201,1849.1176470588234
2202,1850.8235294117646
2203,1849.6470588235295
2204,1846.9411764705883
2205,1843.6470588235295
2206,1840.6470588235295
2207,1838.8235294117646
2208,1837.5294117647059
2209,1835.8823529411766
2210,1834.1764705882354
2211,1832.235294117647
2212,1830.7058823529412
2213,1826.0588235294117
2214,1818.0
2215,1808.5294117647059
2216,1798.5882352941176
2217,1789.6470588235295
2218,1781.6470588235295
2219,1775.3529411764705
2220,1771.7058823529412
2221,1769.6470588235295
2222,1768.8235294117646
2223,1768.9411764705883
2224,1770.4705882352941
2225,1772.8823529411766
2226,1776.235294117647
2227,1778.9411764705883
2228,1781.8823529411766
2229,1782.7058823529412
2230,1784.5294117647059
2231,1786.8235294117646
2232,1789.6470588235295
2233,1791.1764705882354
2234,1796.1176470588234
2235,1797.9411764705883
2236,1799.6470588235295
2237,1806.7058823529412
2238,1813.2941176470588
2239,1819.0
2240,1823.4705882352941
2241,1824.8235294117646
2242,1823.0
2243,1819.3529411764705
2244,1815.6470588235295
2245,1811.7058823529412
2246,1808.8823529411766
2247,1808.1764705882354
2248,1809.1176470588234
2249,1809.8235294117646
2250,1811.764705882353
2251,1809.8823529411766
2252,1812.1176470588234
2253,1815.0
2254,1812.764705882353
2255,1810.235294117647
2256,1807.764705882353
2257,1804.7058823529412
2258,1802.4117647058824
2259,1801.3529411764705
2260,1804.0588235294117
2261,1808.0588235294117
2262,1812.8235294117646
2263,1818.5882352941176
2264,1824.3529411764705
2265,1830.3529411764705
2266,1836.9411764705883
2267,1843.3529411764705
2268,1852.0588235294117
2269,1855.5882352941176
2270,1857.2941176470588
2271,1857.6470588235295
2272,1858.235294117647
2273,1858.764705882353
2274,1860.5882352941176
2275,1863.1176470588234
2276,1865.6470588235295
2277,1864.8823529411766
2278,1863.1176470588234
2279,1861.235294117647
2280,1859.1764705882354
2281,1857.1176470588234
2282,1854.9411764705883
2283,1851.2941176470588
2284,1848.5294117647059
2285,1843.6470588235295
2286,1843.4705882352941
2287,1843.5882352941176
2288,1844.1764705882354
2289,1844.9411764705883
2290,1846.3529411764705
2291,1848.0588235294117
2292,1850.8235294117646
2293,1854.0
2294,1857.5882352941176
2295,1860.2941176470588
2296,1861.0588235294117
2297,1859.3529411764705
2298,1855.8235294117646
2299,1852.1176470588234
2300,1850.3529411764705
2301,1848.6470588235295
2302,1847.4117647058824
2303,1845.4117647058824
2304,1843.9411764705883
2305,1842.1176470588234
2306,1840.2941176470588
2307,1838.5882352941176
2308,1834.7058823529412
2309,1828.235294117647
2310,1821.6470588235295
2311,1813.1764705882354
2312,1807.7058823529412
2313,1803.7058823529412
2314,1801.5294117647059
2315,1799.7058823529412
2316,1797.9411764705883
2317,1796.0
2318,1794.9411764705883
2319,1794.0588235294117
2320,1794.1764705882354
2321,1794.764705882353
2322,1795.9411764705883
2323,1797.0
2324,1796.235294117647
2325,1796.235294117647
2326,1797.3529411764705
2327,1798.5882352941176
2328,1802.3529411764705
2329,1804.0588235294117
2330,1805.1176470588234
2331,1806.9411764705883
2332,1809.8235294117646
2333,1812.8235294117646
2334,1815.764705882353
2335,1816.1176470588234
2336,1813.9411764705883
2337,1809.4117647058824
2338,1804.0
2339,1797.9411764705883
2340,1791.8235294117646
2341,1787.4705882352941
2342,1784.9411764705883
2343,1783.1764705882354
2344,1782.6470588235295
2345,1782.6470588235295
2346,1783.6470588235295
2347,1786.4705882352941
2348,1789.2941176470588
2349,1791.9411764705883
2350,1794.1764705882354
2351,1796.0588235294117
2352,1798.5294117647059
2353,1799.9411764705883
2354,1802.8235294117646
2355,1806.8235294117646
2356,1811.0588235294117
2357,1815.5294117647059
2358,1820.235294117647
2359,1824.6470588235295
2360,1829.1176470588234
2361,1832.235294117647
2362,1833.764705882353
2363,1833.7058823529412
2364,1830.4705882352941
2365,1825.1176470588234
2366,1819.2941176470588
2367,1813.5882352941176
2368,1808.4117647058824
2369,1804.6470588235295
2370,1803.9411764705883
2371,1803.1764705882354
2372,1801.9411764705883
2373,1801.1764705882354
2374,1800.8823529411766
2375,1800.6470588235295
2376,1799.3529411764705
2377,1797.235294117647
2378,1795.9411764705883
2379,1795.0588235294117
2380,1795.1764705882354
2381,1797.3529411764705
2382,1800.4117647058824
2383,1804.235294117647
2384,1809.0588235294117
2385,1815.0588235294117
2386,1821.6470588235295
2387,1828.0
2388,1834.3529411764705
2389,1840.4117647058824
2390,1844.5882352941176
2391,1846.9411764705883
2392,1847.1176470588234
2393,1846.8235294117646
2394,1847.0
2395,1847.0
2396,1846.8235294117646
2397,1846.8823529411766
2398,1846.8823529411766
2399,1847.4117647058824
2400,1844.5294117647059
2401,1840.6470588235295
2402,1835.764705882353
2403,1829.0588235294117
2404,1822.1176470588234
2405,1816.0
2406,1810.5294117647059
2407,1806.764705882353
2408,1804.3529411764705
2409,1803.7058823529412
2410,1804.4117647058824
2411,1805.8823529411766
2412,1808.0588235294117
2413,1811.3529411764705
2414,1815.0588235294117
2415,1818.8823529411766
2416,1821.9411764705883
2417,1827.0588235294117
2418,1831.235294117647
2419,1833.6470588235295
2420,1835.6470588235295
2421,1836.6470588235295
2422,1836.3529411764705
2423,1841.0588235294117
2424,1846.4117647058824
2425,1852.235294117647
2426,1857.8235294117646
2427,1862.764705882353
2428,1866.5882352941176
2429,1868.1176470588234
2430,1867.1764705882354
2431,1863.8823529411766
2432,1859.2941176470588
2433,1854.764705882353
2434,1851.2941176470588
2435,1848.8235294117646
2436,1848.3529411764705
2437,1849.3529411764705
2438,1851.4705882352941
2439,1855.0
2440,1853.6470588235295
2441,1852.5882352941176
2442,1851.5294117647059
2443,1850.5294117647059
2444,1849.5882352941176
2445,1848.5882352941176
2446,1845.9411764705883
2447,1845.0
2448,1845.5294117647059
2449,1845.9411764705883
2450,1846.5882352941176
2451,1847.3529411764705
2452,1849.0
2453,1851.0
2454,1853.4117647058824
2455,1856.0
2456,1857.764705882353
2457,1858.1764705882354
2458,1856.235294117647
2459,1852.2941176470588
2460,1847.1764705882354
2461,1842.1176470588234
2462,1837.7058823529412
2463,1836.5882352941176
2464,1835.6470588235295
2465,1834.764705882353
2466,1835.5294117647059
2467,1836.4705882352941
2468,1838.0
2469,1838.8823529411766
2470,1837.3529411764705
2471,1834.1176470588234
2472,1829.5882352941176
2473,1825.1764705882354
2474,1821.235294117647
2475,1818.8235294117646
2476,1817.4117647058824
2477,1817.0
2478,1816.8235294117646
2479,1816.8235294117646
2480,1818.0588235294117
2481,1819.8823529411766
2482,1822.1176470588234
2483,1823.8823529411766
2484,1825.6470588235295
2485,1825.6470588235295
2486,1824.6470588235295
2487,1823.3529411764705
2488,1822.6470588235295
2489,1822.9411764705883
2490,1823.1764705882354
2491,1823.764705882353
2492,1824.5882352941176
2493,1830.764705882353
2494,1836.5294117647059
2495,1841.8235294117646
2496,1845.9411764705883
2497,1846.9411764705883
2498,1845.2941176470588
2499,1842.235294117647
2500,1838.5882352941176
2501,1835.0
2502,1832.4705882352941
2503,1831.1764705882354
2504,1832.1176470588234
2505,1832.3529411764705
2506,1831.0588235294117
2507,1829.4117647058824
2508,1828.0588235294117
2509,1827.0
2510,1821.5882352941176
2511,1816.4705882352941
2512,1811.4705882352941
2513,1807.1764705882354
2514,1803.5882352941176
2515,1800.5882352941176
2516,1799.8235294117646
2517,1799.8235294117646
2518,1800.5882352941176
2519,1802.1764705882354
2520,1804.235294117647
2521,1806.2941176470588
2522,1809.3529411764705
2523,1813.235294117647
2524,1816.4705882352941
2525,1817.7058823529412
2526,1817.1176470588234
2527,1815.4705882352941
2528,1813.6470588235295
2529,1812.1764705882354
2530,1811.1764705882354
2531,1811.4117647058824
2532,1813.1764705882354
2533,1813.2941176470588
2534,1813.4117647058824
2535,1813.8823529411766
2536,1814.4705882352941
2537,1815.0588235294117
2538,1815.0588235294117
2539,1812.9411764705883
2540,1811.764705882353
2541,1811.764705882353
2542,1813.764705882353
2543,1816.8235294117646
2544,1820.4117647058824
2545,1824.1176470588234
2546,1828.5294117647059
2547,1833.1764705882354
2548,1837.6470588235295
2549,1842.4117647058824
2550,1847.1176470588234
2551,1850.8235294117646
2552,1851.5294117647059
2553,1849.235294117647
2554,1845.1176470588234
2555,1841.235294117647
2556,1838.7058823529412
2557,1837.1176470588234
2558,1835.4705882352941
2559,1834.0588235294117
2560,1832.0
2561,1830.0
2562,1828.2941176470588
2563,1827.9411764705883
2564,1824.8235294117646
2565,1820.3529411764705
2566,1814.764705882353
2567,1809.5294117647059
2568,1805.0
2569,1802.3529411764705
2570,1801.764705882353
2571,1802.5294117647059
2572,1803.8235294117646
2573,1806.7058823529412
2574,1809.2941176470588
2575,1812.7058823529412
2576,1816.5294117647059
2577,1820.8235294117646
2578,1824.764705882353
2579,1828.0588235294117
2580,1827.8823529411766
2581,1828.235294117647
2582,1828.764705882353
2583,1829.2941176470588
2584,1829.7058823529412
2585,1830.235294117647
2586,1833.6470588235295
2587,1837.4117647058824
2588,1841.2941176470588
2589,1844.5882352941176
2590,1847.0588235294117
2591,1845.5882352941176
2592,1843.8823529411766
2593,1839.2941176470588
2594,1833.8235294117646
2595,1828.0588235294117
2596,1822.5294117647059
2597,1817.5882352941176
2598,1814.764705882353
2599,1813.2941176470588
2600,1812.1764705882354
2601,1811.4117647058824
2602,1811.5882352941176
2603,1809.8235294117646
2604,1808.7058823529412
2605,1807.1176470588234
2606,1805.9411764705883
2607,1805.1176470588234
2608,1806.9411764705883
2609,1804.6470588235295
2610,1804.235294117647
2611,1805.9411764705883
2612,1808.4117647058824
2613,1811.9411764705883
2614,1817.1764705882354
2615,1823.0588235294117
2616,1829.0588235294117
2617,1834.7058823529412
2618,1839.8823529411766
2619,1842.8235294117646
2620,1844.0588235294117
2621,1843.4117647058824
2622,1842.5882352941176
2623,1841.2941176470588
2624,1840.0
2625,1839.3529411764705
2626,1842.2941176470588
2627,1844.8235294117646
2628,1845.7058823529412
2629,1846.2941176470588
2630,1846.5882352941176
2631,1846.4705882352941
2632,1841.235294117647
2633,1834.8235294117646
2634,1829.1764705882354
2635,1823.5294117647059
2636,1818.7058823529412
2637,1815.8823529411766
2638,1813.9411764705883
2639,1811.8235294117646
2640,1811.1176470588234
2641,1811.2941176470588
2642,1813.6470588235295
2643,1814.8235294117646
2644,1816.764705882353
2645,1818.764705882353
2646,1819.8235294117646
2647,1819.0588235294117
2648,1816.4117647058824
2649,1816.8823529411766
2650,1818.4117647058824
2651,1819.2941176470588
2652,1820.9411764705883
2653,1822.8235294117646
2654,1824.0
2655,1825.0
2656,1827.5882352941176
2657,1828.5882352941176
2658,1828.235294117647
2659,1824.9411764705883
2660,1822.8235294117646
2661,1820.6470588235295
2662,1818.764705882353
2663,1818.0588235294117
2664,1818.8235294117646
2665,1820.3529411764705
2666,1822.235294117647
2667,1823.4705882352941
2668,1826.0588235294117
2669,1827.9411764705883
2670,1830.9411764705883
2671,1833.4117647058824
2672,1836.2941176470588
2673,1837.3529411764705
2674,1837.764705882353
2675,1837.3529411764705
2676,1835.9411764705883
2677,1833.7058823529412
2678,1830.9411764705883
2679,1831.4705882352941
2680,1832.1764705882354
2681,1833.4705882352941
2682,1836.1176470588234
2683,1838.9411764705883
2684,1842.0
2685,1843.5294117647059
2686,1843.9411764705883
2687,1842.8235294117646
2688,1840.1176470588234
2689,1836.7058823529412
2690,1834.1176470588234
2691,1833.0
2692,1833.0588235294117
2693,1835.1764705882354
2694,1838.4705882352941
2695,1842.8235294117646
2696,1844.8823529411766
2697,1847.1176470588234
2698,1849.5882352941176
2699,1851.7058823529412
2700,1854.0588235294117
2701,1855.8823529411766
2702,1850.4705882352941
2703,1846.4117647058824
2704,1843.0588235294117
2705,1842.3529411764705
2706,1842.6470588235295
2707,1843.9411764705883
2708,1845.2941176470588
2709,1848.235294117647
2710,1851.2941176470588
2711,1853.4117647058824
2712,1854.8823529411766
2713,1854.4117647058824
2714,1851.9411764705883
2715,1846.4117647058824
2716,1839.3529411764705
2717,1831.5294117647059
2718,1823.6470588235295
2719,1824.2941176470588
2720,1824.5294117647059
2721,1824.8823529411766
2722,1823.8235294117646
2723,1821.5294117647059
2724,1818.4117647058824
2725,1819.0
2726,1817.0
2727,1813.235294117647
2728,1809.2941176470588
2729,1805.1764705882354
2730,1802.1176470588234
2731,1800.7058823529412
2732,1801.5882352941176
2733,1803.8823529411766
2734,1807.4705882352941
2735,1812.2941176470588
2736,1817.0588235294117
2737,1823.4705882352941
2738,1830.235294117647
2739,1837.1764705882354
2740,1844.1176470588234
2741,1850.2941176470588
2742,1850.7058823529412
2743,1850.235294117647
2744,1849.7058823529412
2745,1848.8235294117646
2746,1847.9411764705883
2747,1846.6470588235295
2748,1845.0588235294117
2749,1849.8823529411766
2750,1854.5294117647059
2751,1857.8235294117646
2752,1859.5882352941176
2753,1859.764705882353
2754,1857.8235294117646
2755,1854.8235294117646
2756,1851.9411764705883
2757,1849.6470588235295
2758,1847.8235294117646
2759,1847.6470588235295
2760,1849.0588235294117
2761,1851.4117647058824
2762,1854.4705882352941
2763,1858.7058823529412
2764,1863.7058823529412
2765,1869.7058823529412
2766,1868.5294117647059
2767,1866.7058823529412
2768,1865.4117647058824
2769,1864.3529411764705
2770,1863.3529411764705
2771,1861.5294117647059
2772,1860.4117647058824
2773,1860.6470588235295
2774,1861.764705882353
2775,1863.9411764705883
2776,1866.5882352941176
2777,1869.3529411764705
2778,1872.0
2779,1873.8823529411766
2780,1873.235294117647
2781,1871.2941176470588
2782,1867.2941176470588
2783,1863.5294117647059
2784,1860.1176470588234
2785,1856.8235294117646
2786,1854.5882352941176
2787,1853.2941176470588
2788,1854.0588235294117
2789,1854.8235294117646
2790,1855.3529411764705
2791,1856.0588235294117
2792,1856.6470588235295
2793,1856.4705882352941
2794,1856.1176470588234
2795,1855.6470588235295
2796,1849.7058823529412
2797,1847.0
2798,1845.8823529411766
2799,1842.8823529411766
2800,1843.6470588235295
2801,1845.0
2802,1847.8235294117646
2803,1851.2941176470588
2804,1854.6470588235295
2805,1857.4705882352941
2806,1859.4705882352941
2807,1859.5882352941176
2808,1857.1764705882354
2809,1852.4705882352941
2810,1847.0588235294117
2811,1842.2941176470588
2812,1837.7058823529412
2813,1839.764705882353
2814,1840.5882352941176
2815,1840.7058823529412
2816,1843.8823529411766
2817,1844.0
2818,1844.1764705882354
2819,1843.5294117647059
2820,1840.9411764705883
2821,1837.7058823529412
2822,1834.1764705882354
2823,1831.0
2824,1828.6470588235295
2825,1828.3529411764705
2826,1829.3529411764705
2827,1831.5294117647059
2828,1833.7058823529412
2829,1837.4705882352941
2830,1841.9411764705883
2831,1846.5882352941176
2832,1851.3529411764705
2833,1855.8823529411766
2834,1859.235294117647
2835,1861.1764705882354
2836,1860.4705882352941
2837,1861.0
2838,1861.8235294117646
2839,1862.9411764705883
2840,1864.5882352941176
2841,1866.235294117647
2842,1865.5882352941176
2843,1865.4117647058824
2844,1865.4117647058824
2845,1864.8235294117646
2846,1862.8823529411766
2847,1859.7058823529412
2848,1855.0
2849,1849.8235294117646
2850,1844.6470588235295
2851,1840.6470588235295
2852,1837.7058823529412
2853,1836.9411764705883
2854,1835.8235294117646
2855,1835.1176470588234
2856,1834.5882352941176
2857,1834.2941176470588
2858,1835.1764705882354
2859,1838.5294117647059
2860,1841.5882352941176
2861,1844.4117647058824
2862,1847.2941176470588
2863,1849.1176470588234
2864,1849.5294117647059
2865,1849.6470588235295
2866,1849.1764705882354
2867,1847.764705882353
2868,1846.0
2869,1844.4705882352941
2870,1844.3529411764705
2871,1844.764705882353
2872,1845.1764705882354
2873,1845.6470588235295
2874,1845.0
2875,1841.8235294117646
2876,1836.4705882352941
2877,1830.4117647058824
2878,1822.8235294117646
2879,1816.7058823529412
2880,1812.0588235294117
2881,1809.1764705882354
2882,1807.8823529411766
2883,1807.6470588235295
2884,1809.0
2885,1810.764705882353
2886,1813.2941176470588
2887,1815.6470588235295
2888,1817.8823529411766
2889,1816.9411764705883
2890,1815.8235294117646
2891,1815.5294117647059
2892,1816.2941176470588
2893,1817.6470588235295
2894,1819.0
2895,1821.5294117647059
2896,1823.8235294117646
2897,1826.7058823529412
2898,1830.0
2899,1833.1176470588234
2900,1836.1176470588234
2901,1837.5294117647059
2902,1837.4117647058824
2903,1835.0
2904,1830.8823529411766
2905,1826.1764705882354
2906,1824.235294117647
2907,1822.4705882352941
2908,1820.5294117647059
2909,1819.1764705882354
2910,1818.5294117647059
2911,1818.5882352941176
2912,1821.4705882352941
2913,1822.0588235294117
2914,1819.6470588235295
2915,1815.7058823529412
2916,1810.8235294117646
2917,1806.0588235294117
2918,1802.235294117647
2919,1799.4117647058824
2920,1797.6470588235295
2921,1796.1764705882354
2922,1793.9411764705883
2923,1792.4705882352941
2924,1791.5294117647059
2925,1791.2941176470588
2926,1791.7058823529412
2927,1792.5882352941176
2928,1793.4117647058824
2929,1791.5294117647059
2930,1790.5294117647059
2931,1791.0
2932,1792.4705882352941
2933,1794.6470588235295
2934,1797.2941176470588
2935,1799.2941176470588
2936,1801.9411764705883
2937,1805.5294117647059
2938,1809.7058823529412
2939,1814.8235294117646
2940,1819.5882352941176
2941,1823.1176470588234
2942,1824.6470588235295
2943,1824.3529411764705
2944,1821.5294117647059
2945,1820.5882352941176
2946,1819.8823529411766
2947,1819.8823529411766
2948,1820.8235294117646
2949,1820.8823529411766
2950,1819.9411764705883
2951,1818.4705882352941
2952,1818.4705882352941
2953,1818.6470588235295
2954,1818.5882352941176
2955,1818.4117647058824
2956,1818.6470588235295
2957,1818.1176470588234
2958,1815.4705882352941
2959,1814.4705882352941
2960,1814.0588235294117
2961,1815.7058823529412
2962,1815.5294117647059
2963,1815.5882352941176
2964,1816.9411764705883
2965,1818.9411764705883
2966,1822.235294117647
2967,1826.0588235294117
2968,1829.0
2969,1830.8823529411766
2970,1831.0
2971,1830.0588235294117
2972,1828.5882352941176
2973,1826.8235294117646
2974,1825.5294117647059
2975,1827.1176470588234
2976,1828.2941176470588
2977,1828.7058823529412
2978,1828.764705882353
2979,1828.4117647058824
2980,1828.4117647058824
2981,1827.5294117647059
2982,1824.7058823529412
2983,1821.4117647058824
2984,1818.5294117647059
2985,1816.5882352941176
2986,1815.0
2987,1814.5294117647059
2988,1814.235294117647
2989,1813.8823529411766
2990,1813.2941176470588
2991,1813.1176470588234
2992,1813.8235294117646
2993,1815.2941176470588
2994,1817.9411764705883
2995,1820.8823529411766
2996,1823.5882352941176
2997,1824.8823529411766
2998,1823.9411764705883
2999,1823.764705882353
