,id,emg,label
0,sub0_amostra0_0,"[1877 1903 1872 1875 1888 1911 1911 1873 1872 1872 1873 1877 1874 1873
 1907 1908 1904 1874 1905 1886 1858 1889 1878 1861 1861 1898 1865 1874
 1866 1903 1870 1872 1882 1901 1903 1872 1872 1873 1891 1879 1875 1877
 1895 1895 1933 1931 1926 1894 1936 1919 1903 1901 1933 1933 1907 1903
 1934 1902 1902 1910 1935 1929 1900 1901 1902 1853 1854 1863 1854 1856
 1853 1850 1883 1886 1884 1862 1892 1879 1860 1870 1865 1897 1870 1865
 1893 1865 1875 1872 1904 1827 1840 1863 1859 1835 1837 1835 1835 1838
 1833 1830 1861 1856 1856 1825 1857 1849 1829 1825 1862 1859 1843 1831
 1815 1829 1813 1841 1815 1830 1846 1856 1853 1819 1818 1820 1821 1824
 1821 1823 1853 1855 1854 1826 1859 1850 1825 1899 1886 1860 1861 1857
 1857 1869 1862 1891 1861 1867 1877 1903 1904 1872 1869 1872 1872 1874
 1872 1874 1905 1904 1936 1934 1932 1903 1935 1927 1903 1904 1899 1901
 1905 1859 1926 1902 1902 1910 1936 1935 1904 1905 1910 1909 1911 1907
 1890 1858 1859 1862 1899 1897 1895 1863 1902 1886 1868 1860 1859 1894
 1867 1857 1887 1858 1859 1871 1893 1890 1860 1872 1871 1841 1841 1844
 1840 1844 1841 1840 1876 1876 1872 1843 1876 1861 1842 1837 1872 1871
 1847 1840 1870 1842 1820 1855 1818 1821 1809 1853 1841 1817 1810 1815
 1815 1821 1814 1819 1854 1850 1851 1818 1850 1840 1815 1813 1818 1845
 1850 1847 1881 1858 1851 1886 1853 1855 1866 1888 1879 1856 1855 1853
 1853 1854 1854 1856 1889 1885 1878 1856 1883 1882 1888 1886 1878 1862
 1866 1863 1898 1874 1867 1897 1870 1869 1875 1899 1893 1861 1858 1858
 1865 1867 1862 1858 1837 1831 1868 1867 1871 1831 1867 1857 1835 1835
 1835 1834 1841 1837 1866 1834 1836 1843 1867 1862 1831 1831 1888 1832
 1834 1835 1837 1840 1853 1821 1872 1875 1870 1872 1858 1867 1841 1840
 1875 1874 1850 1819 1875 1850 1849 1847 1879 1866 1877 1903 1897 1869
 1871 1862 1865 1867 1866 1869 1901 1899 1893 1899 1901 1897 1869 1873
 1903 1904 1876 1872 1852 1857 1854 1884 1854 1859 1866 1886 1886 1853
 1856 1853 1854 1856 1851 1853 1879 1883 1877 1845 1872 1865 1847 1809
 1851 1832 1825 1865 1831 1840 1829 1863 1830 1903 1843 1867 1868 1835
 1835 1830 1830 1834 1827 1833 1863 1858 1857 1856 1856 1822 1856 1847
 1822 1826 1824 1822 1831 1822 1854 1825 1830 1838 1861 1861 1829 1833
 1830 1825 1824 1819 1772 1773 1774 1771 1808 1808 1803 1776 1808 1803
 1776 1774 1776 1776 1792 1776 1808 1776 1777 1788 1813 1814 1788 1803
 1807 1776 1774 1774 1776 1776 1776 1772 1807 1808 1806 1808 1804 1793
 1774 1771 1772 1805 1741 1765 1798 1770 1826 1856 1825 1831 1835 1861
 1856 1826 1827 1831 1829 1879 1833 1830 1858 1861 1861 1833 1867 1856
 1834 1831 1831 1891 1891 1925 1889 1899 1889 1920 1887 1886 1896 1915
 1917 1882 1879 1886 1887 1840 1886 1888 1922 1925 1925 1888 1922 1921
 1893 1923 1913 1887 1891 1891 1893 1901 1893 1922 1891 1893 1902 1925
 1921 1891 1892 1894 1895 1895 1893 1894 1904 1902 1930 1929 1926 1901
 1931 1922 1901 1904 1902 1893 1905 1899 1927 1894 1878 1899 1924 1899
 1889 1890 1903 1869 1827 1872 1872 1872 1870 1873 1904 1907 1906 1873
 1930 1897 1883 1883 1906 1887 1887 1885 1915 1883 1879 1884 1907 1875
 1879 1908 1903 1872 1872 1870 1869 1873 1867 1863 1897 1900 1890 1866
 1897 1838 1867 1871 1901 1865 1872 1867 1901 1904 1899 1932 1902 1898
 1904 1934 1929 1899 1900 1899 1898 1894 1872 1889 1920 1920 1935 1889
 1919 1911 1879 1887 1878 1861 1859 1857 1858 1863 1860 1895 1866 1862
 1871 1893 1892 1857 1866 1850 1857 1856 1856 1855 1917 1891 1882 1882
 1877 1849 1872 1872 1851 1851 1851 1851 1860 1854 1886 1854 1856 1858
 1888 1884 1850 1850 1843 1850 1851 1847 1827 1826 1830 1891 1854 1857
 1859 1825 1855 1845 1821 1817 1819 1852 1827 1824 1856 1825 1825 1834
 1861 1859 1826 1839 1840 1808 1804 1805 1808 1807 1807 1805 1841 1840
 1840 1805 1839 1831 1804 1802 1840 1807 1809 1808 1840 1808 1805 1839
 1802 1804 1806 1826 1829 1795 1796 1798 1796 1800 1800 1793 1833 1829
 1831 1803 1827 1840 1794 1791 1824 1831 1866 1836 1833 1840 1836 1861
 1830 1831 1839 1862 1862 1828 1827 1846 1830 1826 1829 1826 1861 1857
 1851 1818 1855 1877 1849 1882 1875 1849 1853 1851 1851 1859 1854 1876
 1845 1847 1849 1873 1872 1843 1843 1847 1842 1846 1847 1847 1861 1863
 1899 1894 1899 1871 1894 1900 1872 1872 1873 1907 1879 1875 1907 1883
 1876 1886 1916 1914 1884 1886 1888 1902 1903 1901 1899 1904 1902 1903
 1932 1935 1936 1936 1936 1933 1904 1904 1905 1937 1913 1904 1936 1904
 1901 1904 1931 1884 1893 1915 1911 1877 1880 1873 1875 1877 1876 1873
 1908 1913 1915 1882 1913 1897 1883 1888 1886 1882 1889 1882 1906 1825
 1822 1858 1825 1826 1831 1860 1855 1825 1824 1824 1822 1847 1824 1815
 1856 1859 1863 1829 1865 1865 1833 1863 1855 1833 1829 1865 1842 1838
 1835 1871 1811 1840 1841 1870 1869 1837 1842 1834 1837 1834 1835 1835
 1869 1869 1904 1904 1897 1904 1895 1894 1859 1858 1890 1856 1857 1857
 1887 1861 1863 1863 1899 1891 1863 1862 1861 1861 1867 1857 1861 1863
 1863 1865 1901 1899 1899 1868 1899 1915 1863 1865 1866 1898 1875 1865
 1902 1872 1872 1875 1904 1908 1871 1923 1858 1827 1825 1829 1830 1834
 1835 1836 1866 1866 1864 1882 1869 1861 1835 1831 1863 1862 1833 1821
 1856 1824 1851 1883 1855 1854]",0
1,sub0_amostra0_1,"[1806 1808 1840 1839 1833 1807 1800 1802 1805 1801 1822 1823 1822 1817
 1849 1853 1846 1841 1840 1840 1806 1806 1803 1806 1808 1811 1846 1810
 1815 1813 1798 1845 1847 1904 1906 1903 1872 1871 1872 1872 1872 1872
 1903 1904 1897 1888 1895 1890 1856 1855 1855 1853 1854 1856 1887 1883
 1841 1872 1840 1840 1841 1858 1874 1879 1796 1840 1840 1837 1822 1834
 1872 1874 1870 1862 1872 1867 1834 1831 1871 1851 1823 1858 1847 1847
 1841 1879 1840 1844 1841 1877 1884 1886 1855 1856 1856 1859 1859 1858
 1898 1898 1895 1891 1898 1918 1911 1920 1926 1886 1883 1881 1887 1885
 1881 1913 1875 1881 1879 1918 1914 1909 1882 1882 1886 1881 1878 1883
 1882 1883 1919 1919 1920 1922 1925 1919 1887 1894 1894 1926 1893 1891
 1930 1893 1893 1891 1930 1921 1919 1891 1898 1943 1917 1910 1913 1916
 1914 1916 1951 1946 1951 1951 1950 1952 1916 1917 1946 1952 1912 1918
 1945 1938 1909 1913 1950 1967 1969 2000 2007 1998 1968 1965 1966 1968
 1961 1965 1999 2000 1999 1991 2000 1996 1962 1963 1991 1992 1959 1955
 1962 1902 1929 1967 1956 1926 1931 1963 1962 1957 1927 1923 1924 1935
 1925 1920 1959 1964 1961 1958 1962 1970 1931 1921 1920 1883 1881 1919
 1881 1885 1885 1919 1911 1881 1877 1915 1915 1911 1878 1878 1876 1872
 1870 1872 1907 1910 1909 1909 1909 1901 1907 1905 1872 1872 1872 1872
 1872 1872 1911 1904 1872 1871 1904 1903 1897 1870 1869 1863 1859 1862
 1899 1901 1900 1902 1935 1936 1936 1936 1936 1933 1897 1897 1934 1930
 1898 1894 1936 1898 1899 1902 1927 1926 1921 1877 1879 1872 1846 1841
 1840 1842 1897 1840 1839 1881 1879 1868 1874 1875 1842 1847 1879 1883
 1846 1847 1882 1850 1895 1918 1883 1883 1888 1915 1922 1920 1886 1887
 1888 1889 1882 1886 1919 1921 1920 1909 1918 1914 1874 1875 1878 1872
 1872 1903 1869 1868 1871 1901 1869 1863 1875 1904 1904 1899 1871 1864
 1866 1862 1859 1854 1895 1891 1886 1881 1882 1808 1810 1810 1779 1776
 1777 1777 1779 1778 1807 1776 1775 1776 1806 1807 1802 1770 1775 1767
 1770 1774 1774 1808 1813 1855 1850 1850 1846 1856 1853 1819 1820 1817
 1819 1817 1815 1853 1809 1809 1808 1843 1840 1840 1808 1807 1807 1808
 1843 1840 1903 1843 1843 1882 1882 1883 1893 1883 1887 1853 1855 1857
 1853 1853 1861 1889 1855 1856 1856 1889 1894 1876 1907 1921 1902 1872
 1872 1870 1872 1870 1865 1903 1901 1902 1898 1904 1901 1865 1863 1898
 1891 1858 1857 1887 1887 1883 1920 1886 1879 1879 1893 1908 1910 1874
 1872 1863 1872 1873 1872 1909 1908 1910 1907 1909 1910 1877 1872 1863
 1824 1826 1863 1862 1828 1846 1872 1835 1839 1840 1873 1872 1883 1837
 1833 1837 1828 1834 1835 1868 1868 1866 1860 1904 1916 1904 1905 1872
 1872 1908 1911 1847 1888 1905 1872 1870 1872 1890 1907 1905 1870 1872
 1869 1866 1868 1869 1865 1866 1898 1901 1901 1901 1899 1897 1860 1856
 1894 1857 1862 1875 1899 1859 1862 1859 1877 1893 1888 1856 1856 1819
 1786 1783 1786 1787 1786 1787 1823 1821 1826 1818 1821 1819 1782 1779
 1788 1787 1792 1808 1833 1830 1793 1792 1808 1776 1809 1830 1850 1845
 1812 1813 1813 1813 1811 1815 1853 1847 1851 1844 1854 1851 1813 1853
 1858 1847 1813 1840 1872 1839 1856 1873 1840 1837 1841 1856 1877 1872
 1840 1842 1840 1842 1840 1841 1883 1883 1875 1875 1877 1882 1843 1913
 1906 1875 1873 1877 1919 1883 1900 1919 1878 1921 1877 1893 1915 1917
 1883 1881 1881 1877 1879 1883 1916 1918 1907 1910 1906 1909 1906 1907
 1865 1869 1865 1863 1866 1883 1895 1898 1859 1867 1874 1901 1898 1869
 1866 1863 1866 1870 1869 1872 1872 1867 1906 1906 1906 1899 1904 1887
 1878 1867 1903 1866 1860 1885 1902 1861 1873 1862 1859 1905 1894 1925
 1952 1947 1915 1909 1905 1906 1909 1907 1945 1946 1942 1946 1898 1942
 1913 1909 1909 1908 1912 1936 1948 1943 1882 1894 1887 1857 1854 1869
 1890 1887 1835 1853 1847 1846 1850 1854 1891 1897 1899 1901 1900 1899
 1859 1866 1859 1842 1843 1886 1889 1855 1879 1895 1858 1817 1856 1867
 1890 1887 1849 1845 1814 1845 1849 1847 1887 1891 1892 1891 1893 1901
 1906 1906 1911 1865 1857 1862 1863 1885 1901 1863 1866 1867 1873 1903
 1903 1865 1867 1869 1869 1869 1872 1907 1872 1906 1910 1905 1906 1905
 1905 1869 1863 1873 1907 1872 1898 1909 1881 1872 1870 1875 1904 1899
 1856 1857 1857 1855 1846 1855 1840 1845 1850 1886 1887 1885 1885 1882
 1883 1845 1853 1873 1847 1851 1872 1883 1851 1850 1841 1857 1883 1855
 1868 1894 1891 1856 1859 1857 1855 1859 1859 1904 1901 1903 1903 1905
 1898 1857 1863 1903 1858 1872 1885 1898 1840 1862 1885 1840 1839 1840
 1850 1878 1874 1838 1837 1837 1840 1837 1840 1875 1874 1874 1871 1872
 1872 1837 1838 1886 1846 1850 1853 1891 1848 1873 1904 1846 1841 1847
 1859 1886 1884 1843 1844 1840 1843 1842 1840 1882 1876 1878 1872 1857
 1856 1858 1857 1809 1809 1853 1808 1808 1837 1842 1802 1799 1798 1811
 1845 1842 1802 1808 1862 1805 1799 1808 1834 1789 1790 1837 1830 1840
 1836 1847 1836 1794 1791 1792 1791 1787 1814 1827 1780 1781 1779 1792
 1827 1826 1782 1845 1840 1801 1797 1799 1793 1794 1794 1840 1840 1840
 1839 1840 1825 1798 1798 1838 1791 1793 1821 1840 1791 1795 1837 1834
 1787 1787 1803 1833 1829 1787 1783 1781 1777 1777 1779 1828 1826 1829
 1821 1827 1808 1778 1773 1779 1776 1776 1840 1795 1797 1831 1847 1842
 1803 1803 1813 1846 1841 1797]",0
2,sub0_amostra0_2,"[1879 1859 1862 1863 1841 1813 1818 1813 1819 1820 1865 1863 1867 1859
 1840 1869 1815 1820 1865 1840 1817 1861 1855 1818 1815 1885 1844 1862
 1836 1839 1881 1877 1858 1830 1830 1827 1830 1827 1876 1873 1875 1873
 1853 1878 1831 1833 1875 1865 1831 1851 1830 1805 1845 1851 1805 1805
 1808 1810 1853 1847 1828 1802 1803 1816 1798 1805 1850 1851 1854 1857
 1831 1858 1871 1841 1869 1827 1827 1827 1827 1827 1874 1883 1835 1863
 1839 1841 1876 1885 1863 1836 1849 1833 1831 1826 1878 1818 1863 1867
 1857 1855 1829 1857 1808 1812 1860 1809 1811 1858 1871 1815 1845 1814
 1824 1869 1870 1847 1818 1815 1815 1808 1808 1808 1806 1805 1856 1851
 1849 1847 1814 1899 1791 1795 1797 1826 1794 1894 1845 1794 1794 1795
 1798 1842 1777 1782 1837 1834 1811 1744 1782 1791 1783 1788 1840 1845
 1799 1842 1810 1843 1791 1842 1839 1840 1782 1845 1840 1755 1802 1807
 1745 1744 1749 1753 1804 1807 1781 1753 1746 1749 1746 1750 1809 1808
 1808 1808 1776 1813 1757 1758 1805 1746 1808 1807 1799 1743 1797 1797
 1800 1776 1739 1746 1803 1805 1782 1742 1743 1744 1744 1744 1802 1802
 1802 1798 1792 1795 1753 1806 1730 1733 1733 1757 1732 1788 1793 1792
 1767 1728 1739 1797 1795 1775 1694 1739 1735 1739 1739 1744 1786 1744
 1810 1807 1812 1808 1771 1809 1747 1808 1747 1744 1745 1807 1808 1809
 1748 1748 1751 1810 1813 1797 1873 1872 1850 1811 1808 1810 1811 1811
 1878 1881 1877 1877 1837 1883 1822 1819 1885 1845 1816 1903 1887 1821
 1863 1945 1877 1878 1883 1897 1945 1943 1925 1879 1877 1880 1881 1874
 1946 1950 1949 1947 1857 1950 1885 1886 1894 1952 1881 1846 1894 1850
 1916 1920 1914 1899 1850 1853 1915 1913 1887 1843 1846 1841 1849 1846
 1916 1917 1916 1918 1822 1922 1936 1887 1918 1873 1867 1914 1887 1870
 1923 1934 1931 1855 1858 1869 1930 1926 1909 1857 1858 1853 1856 1862
 1927 1877 1875 1943 1946 1949 1938 1893 1943 1873 1870 1872 1942 1873
 1940 1943 1874 1926 1872 1874 1939 1939 1920 1872 1936 1914 1865 1857
 1862 1856 1859 1928 1923 1924 1923 1875 1923 1855 1856 1857 1932 1861
 1927 1930 1930 1869 1856 1865 1857 1859 1839 1934 1933 1915 1869 1866
 1866 1869 1866 1943 1941 1933 1942 1889 1937 1875 1877 1952 1950 1881
 1949 1859 1857 1931 1929 1854 1856 1851 1859 1925 1922 1905 1854 1855
 1856 1855 1856 1934 1931 1933 1936 1877 1936 1858 1864 1920 1847 1846
 1847 1919 1847 1910 1918 1842 1904 1846 1851 1918 1917 1895 1845 1844
 1842 1840 1840 1909 1911 2000 2019 2007 2012 1953 2014 1947 1951 1954
 1957 1959 2029 1967 1968 1974 1980 1984 2063 2064 2044 1989 1994 1996
 1997 2112 2113 2115 2118 2193 2193 2194 2186 2139 2193 2122 2124 2122
 2193 2121 2192 2125 2198 2186 2129 2138 2209 2204 2082 2153 2156 2133
 2078 2080 2080 2080 2080 2152 2157 2160 2157 2101 2159 2089 2086 2083
 2103 2086 2155 2085 2155 2144 2071 2071 2069 2069 2070 2143 2135 2123
 2064 2063 2064 2064 2064 2141 2145 2141 2142 2082 2138 2064 2064 2133
 2005 2004 2088 2064 2000 2082 2006 2083 2067 2011 2010 2087 2083 2064
 2000 2003 2000 2000 1999 2082 2117 2080 2075 2014 2045 1995 2054 1971
 1973 2046 2031 1971 2045 1973 1975 2033 1973 1979 2046 2043 2032 1971
 1968 1968 1936 1968 2037 1699 1697 1767 1766 1766 1758 1697 1757 1680
 1667 1662 1747 1669 1743 1739 1659 1715 1658 1659 1726 1727 1703 1648
 1639 1625 1572 1616 1573 1572 1574 1648 1646 1648 1648 1585 1645 1572
 1645 1573 1573 1571 1645 1646 1577 1577 1581 1579 1657 1599 1602 1677
 1680 1664 1604 1604 1606 1600 1601 1678 1679 1679 1677 1619 1681 1612
 1683 1695 1687 1616 1683 1840 1767 1840 1845 1773 1826 1771 1775 1846
 1844 1834 1770 1770 1766 1766 1765 1841 1840 1837 1840 1783 1842 1771
 1883 2016 1872 1872 1948 1885 1866 1936 1936 1935 1923 1927 1861 1936
 1936 1924 1866 1862 1862 1862 1866 1937 1940 1968 1963 1926 1965 1904
 1922 1891 1889 1962 1887 1889 1958 1965 1962 1870 1888 1846 1963 1943
 1949 1885 1882 1836 1878 1883 1878 1881 1874 1957 1957 1959 1958 1894
 1998 1878 1881 1961 1881 1904 1960 1959 1879 1875 1879 1881 1959 1958
 1909 1984 1983 1968 1904 1901 1894 1904 1902 2047 1983 1980 1984 1919
 1984 1905 1907 1905 1904 1905 1981 1978 1979 1954 1958 1959 1942 1872
 1874 1952 1953 1941 1879 1869 1872 1871 1872 1955 1953 1958 1965 1892
 1958 1876 1875 1954 1862 1870 1946 1934 1870 1942 1956 1954 1936 1875
 1899 1953 1952 1936 1870 1870 1869 1870 1870 1952 1953 1953 1952 1887
 1966 1894 1966 1887 1886 1933 1898 1886 1967 1963 1881 1879 1875 1865
 1959 1958 1943 1874 1872 1873 1874 1874 1959 1793 1794 1877 1874 1873
 1876 1807 1872 1793 1790 1872 1791 1793 1869 1874 1872 1861 1791 1794
 1873 1872 1858 1791 1921 1910 1842 1841 1840 1840 1840 1920 1921 1918
 1909 1842 1905 1828 1823 1827 1886 1825 1904 1905 1907 1890 1819 1824
 1941 1872 1877 1959 1961 1943 1875 1874 1872 1869 1870 1945 1947 1943
 1947 1873 1943 1860 1858 1942 1859 1853 1936 1879 1877 1966 1968 1879
 1952 1875 1885 1963 2035 1956 1875 1875 1873 1895 1873 1954 1947 1952
 1947 1876 1947 1858 1845 1920 1831 1833 1920 1915 1827 1905 1911 1824
 1897 1821 1826 1906 1913 1892 1824 1819 1822 1819 1817 1904 1904 1905
 1904 1904 1904 1827 1903 1813 1815 1814 1887 1815 1895 1904 1901 1818
 1818 1822 1904 1904 1891 1821]",0
3,sub0_amostra0_3,"[1946 2036 2032 1923 1926 1925 1926 1927 2045 2054 2054 2055 1936 2059
 1936 1939 2063 1937 1936 2061 1936 1936 2055 1965 2061 2046 1936 1936
 1965 2063 2055 1936 1939 1936 1938 1938 2060 2058 2007 2007 2006 2003
 1895 2004 1886 1888 2000 1881 1872 1993 1968 1872 1871 1871 1869 1899
 1987 1981 1872 1872 1867 1870 1902 1900 1903 1904 2019 2023 2022 2019
 1913 2028 1907 2000 2026 1905 1907 1982 1933 2003 1906 1978 1907 1929
 2029 1861 1885 1972 1970 1856 1859 1851 1857 1855 1978 1977 1980 1936
 1868 1981 1857 1951 1981 1858 1863 1978 1889 1863 1949 1860 1836 1836
 1840 1840 1857 1958 1941 1834 1828 1830 1827 1830 1946 1946 1944 1942
 1833 1973 1824 1917 1941 1799 1892 1795 1915 1793 1917 1822 1920 1800
 1781 1803 1822 1919 1913 1797 1793 1795 1795 1797 1924 1930 1929 1934
 1814 1945 1831 1946 1823 1925 1825 1940 1826 1946 1846 1831 1927 1823
 1828 1845 1943 1939 1821 1822 1821 1822 1820 1942 1813 1812 1935 1936
 1933 1927 1813 1921 1806 1902 1927 1811 1807 1927 1835 1808 1908 1808
 1810 1837 1931 1929 1811 1985 1982 1859 1865 1870 1865 1868 1986 1984
 1984 1980 1870 1985 1863 1964 1867 1978 1867 1989 1894 1990 1872 1872
 1873 1968 1855 1859 1881 1983 1977 1863 1863 1862 1867 1869 1993 1985
 1989 1987 1870 1983 1867 1968 1987 1866 1867 1985 1869 1729 1863 1751
 1723 1725 1718 1713 1743 1851 1849 1714 1712 1705 1706 1702 1840 1840
 1829 1827 1691 1819 1681 1561 1696 1556 1648 1559 1557 1559 1693 1584
 1554 1555 1555 1554 1584 1693 1687 1558 1558 1558 1559 1565 1705 1702
 1757 1793 1803 1792 1661 1793 1654 1680 1661 1658 1648 1792 1679 1793
 1789 1650 1649 1680 1797 1792 1661 1662 1664 1665 1714 1715 1719 1722
 1860 1862 1866 1869 1738 1872 1744 1763 1874 1869 1739 1875 1760 1875
 1872 1739 1744 1767 1882 1815 1840 1951 1946 1811 1811 1809 1812 1813
 1953 1951 1953 1952 1818 1947 1812 1929 1808 1938 1807 1943 1836 1809
 2137 2020 2000 2137 2001 2007 2031 2157 2148 2011 2011 2015 2011 2015
 2157 2161 2160 2160 2030 2165 2029 2030 2029 2095 2096 2095 2101 2093
 2197 2211 2098 2096 2096 2094 2114 2228 2219 2087 2089 2086 2083 2087
 2226 2227 2224 2225 2105 2192 2061 2190 2055 2056 2058 2189 2059 2187
 2162 2183 2047 2046 2046 2068 2179 2176 2033 2032 2031 2032 2031 2174
 2055 2047 2190 2189 2185 2188 2055 2187 2047 2045 2189 2183 2047 2192
 2175 2062 2192 2064 2064 2083 2199 2193 2062 2167 2162 2033 2032 2032
 2032 2032 2175 2174 2176 2167 2038 2222 2032 2032 2170 2170 2032 2173
 2153 2146 2038 2035 2035 2118 1984 1984 2002 2125 2122 2007 1985 1984
 1984 1985 2127 2128 2127 2128 1991 2099 1985 1986 1985 1994 1991 2128
 2083 1966 2070 1982 2103 2094 1985 1962 1974 2099 2099 1963 1963 1958
 1955 1957 2065 2096 2095 2090 1950 2087 1943 1878 2018 1878 1877 1882
 2017 1914 2013 1899 2017 1872 1873 1873 1890 2014 2007 1905 1872 1874
 1872 1872 2011 2017 1934 1971 1968 1970 1833 1968 1824 1825 1822 1963
 1852 1957 1834 1954 1945 1809 1815 1840 1957 1954 1857 1815 1823 1823
 1829 1825 1825 1829 1927 1963 1967 1968 1828 1927 1830 1946 1829 1828
 1866 1963 1840 1822 1823 1855 1826 1844 1968 1840 1860 1981 1975 1881
 1840 1837 1838 1839 1947 1979 1983 1940 1845 1939 1840 1961 1979 1792
 1871 1970 1855 1837 1967 1840 1826 1967 1874 1827 1842 1969 1965 1861
 1822 1822 1819 1821 1920 1967 1968 1968 1829 1929 1829 2017 1967 1840
 1836 1838 1975 1887 1983 1862 1984 1840 1879 1844 1867 1994 1987 1904
 1879 1851 1854 1854 1951 1993 1990 1985 1849 1968 1833 1922 1837 1963
 1839 1982 1882 1981 1856 1840 1840 1898 1840 1855 1982 1975 1878 1802
 1785 1825 1827 1916 1839 1841 1923 1984 1985 1984 1883 1942 1840 1967
 1840 1981 1903 1983 1859 1841 1983 1886 1838 1855 1960 1974 1894 1972
 1969 1889 1828 1834 1834 1839 1968 1982 1982 1979 1840 1965 1840 1968
 1983 1845 1894 1987 1862 1989 1851 1907 1843 1977 1891 1838 1850 1982
 1979 1904 1840 1837 1837 1838 1930 1983 1983 1982 1840 1909 1839 1966
 1979 1975 1895 1984 1973 1885 1971 1840 1825 1966 1889 1813 1835 1977
 1964 1871 1813 1807 1813 1813 1902 1952 1953 1952 1809 1895 1808 1808
 1890 1803 1934 1802 1942 1872 1949 1815 1797 1799 1795 1798 1814 1948
 1942 1870 1801 1796 1795 1791 1879 1942 1898 1968 1968 1968 1825 1904
 1825 1953 1969 1822 1886 1966 1831 1812 1959 1808 1808 1823 1954 1948
 1871 1801 1801 1803 1790 1791 1787 1790 1863 1939 1942 1942 1798 1875
 1802 1936 1804 1808 1877 1953 1822 1957 1952 1808 1810 1831 1968 1818
 1835 1968 1965 1890 1811 1811 1809 1817 1892 1967 1966 1967 1823 1888
 1822 1962 1822 1823 1892 1970 1840 1821 2011 1885 1867 1872 1871 1872
 1886 2018 2017 1945 1867 1867 1867 1867 1932 2017 2020 2017 1872 1939
 1866 1999 1866 1870 2000 1859 1859 1947 2013 1877 1864 1860 1859 1861
 1875 2010 2006 1943 1857 1858 1856 1856 1931 2010 2009 2011 1859 2026
 1871 1933 1870 1870 1867 1870 1945 2021 1887 1872 2017 1962 1873 1894
 2032 2031 1963 1883 1882 1882 1882 1941 1884 1881 1950 2047 2043 2037
 1874 1947 1872 2020 2032 1867 1958 2032 1880 1862 1863 1863 1861 1875
 2029 2022 1951 1936 1935 1855 1750 1745 1744 1742 1830 1917 1911 1909
 1731 1808 1727 1890 1719 1904 1810 1907 1743 1905 1901 1817 1719 1392
 1485 1386 1403 1583 1577 1486]",0
4,sub0_amostra1_0,"[1951 2041 1939 1923 1903 1906 1930 1904 1925 1934 1915 1817 1792 1765
 1740 1741 1819 1754 1797 1945 2017 2002 2079 2240 2192 2220 2208 2160
 2097 2128 2293 2229 2323 2227 2203 2166 2156 2133 2076 2013 1958 1952
 1965 2005 2122 2069 2161 2178 2111 2018 1823 1811 1646 2551 2450 2104
 1868 1654 1472 1369 1306 1158 1154 1185 1298 1430 1520 1531 1625 1690
 1744 1795 1893 1817 1814 1898 2222 2256 2148 1933 1814 1803 1633 1595
 1601 1664 1775 2004 2098 2309 2506 2681 2733 2642 2393 2181 1937 1727
 1499 1425 1925 1807 1859 1734 1691 1742 1681 1655 1634 1647 1598 1675
 1774 1991 2094 2283 2279 2294 2240 2175 2094 1951 1750 2095 1955 1759
 1666 1594 1535 1511 1584 1470 1447 1525 1520 1469 1521 1703 1702 1799
 1875 1958 2031 2068 1919 1838 1712 1726 1872 2039 2237 2410 2448 2329
 2215 2042 1857 1712 1691 1579 1639 1841 2062 2192 2397 2631 2607 2533
 2501 1798 1792 1769 1850 1861 1895 1873 1967 2078 2219 2370 2458 2447
 2494 2515 2511 2509 2647 2483 2455 2500 2435 2384 2219 2259 2041 1934
 1952 1847 1897 2030 1981 1987 2059 1910 1926 1793 1766 1745 1666 1515
 1467 1424 1402 1395 1502 1445 2099 1948 1920 2016 2000 2030 2108 2247
 2178 2193 2195 2176 2161 2183 2042 2023 2012 2035 2094 2058 1933 1878
 1836 1936 1934 1968 2009 2031 2074 1911 1840 1872 1806 1636 1575 1602
 1450 1394 1349 1415 1381 1477 1479 1616 1759 1925 2287 2192 2081 1999
 1872 1693 1619 1575 1535 1506 1552 1408 1367 1443 1451 1488 1449 1616
 1598 1685 1753 1826 1923 1955 2177 2164 2224 2151 2126 2034 1947 1887
 1761 1569 1493 1435 1410 1419 1535 1490 1567 1746 1824 1811 1881 2015
 1927 1707 1917 1931 2047 2117 2158 2179 2224 2091 2025 1951 1923 1953
 1966 1961 2094 2207 2278 2316 2378 2228 2136 2096 1552 1719 1805 1812
 1915 2101 2074 2103 2102 2112 2197 2241 2148 2111 2063 2005 1978 1871
 1698 1639 1602 1600 1634 1759 1793 1757 1873 1792 1795 1873 1861 1785
 1843 2032 2033 2100 2234 2170 2222 2311 2260 2342 2468 2644 2851 2975
 2957 1701 1535 1339 1290 1305 1370 1471 1664 1666 1743 1879 1913 1812
 1774 1791 1617 1527 1543 1381 1369 1423 1357 1424 1475 1458 1520 1559
 1616 1697 1712 1648 1665 1691 1729 1850 1969 1977 2097 2307 2406 2378
 2384 2427 2230 2089 1929 1904 1946 1958 1967 1946 1990 1849 1807 1770
 1765 1793 1749 1680 1610 1600 1600 1632 1746 1686 1733 1872 1918 1862
 1894 2066 2014 2147 2174 2099 2116 2134 2249 2238 2274 2183 2183 2163
 2176 2229 2224 2141 2112 2068 1999 1936 1962 1808 2128 2033 2006 2057
 1982 1808 1739 1780 1663 1670 1687 1724 1767 1902 1855 1914 1979 2061
 2138 2114 1970 1915 1861 2298 2287 2213 2109 2000 1994 1818 1763 1838
 1821 1725 1735 1834 1759 1733 1794 1661 1623 1693 1588 1595 1628 1689
 1826 1903 1990 2098 2109 2017 2029 2032 2029 2023 2081 1941 1904 1942
 1904 1780 1759 1841 1744 1752 1760 1759 1831 1777 2155 2028 1943 1703
 1577 1483 1468 1555 1603 1593 1685 1779 1840 1858 1920 1777 1718 1754
 1696 1570 1558 1695 1557 1642 1549 1394 1360 1454 1401 1499 1668 1686
 1821 1996 2227 2534 2737 2813 2921 2909 2789 2602 2460 2154 1975 1947
 2199 2367 2448 2413 2477 2613 2450 2352 2238 2142 2175 2151 2046 2034
 2006 1968 1966 1858 1642 1484 1339 1210 1103 1125 1787 1779 1872 1779
 1805 1939 1991 1968 2053 2209 2142 2128 2066 2079 1889 1851 1670 1591
 1553 1584 1697 1774 1787 1709 1792 1770 1808 1828 1818 1786 1836 1692
 1662 1755 1762 1795 1714 1915 1895 1957 2112 2053 2101 2194 2111 2115
 1778 1689 1681 1667 1674 1755 1780 1752 1840 1936 2032 2125 2253 2149
 2109 2131 2027 1838 1842 1775 1642 1648 1790 1790 1808 1892 1759 1713
 1759 1619 1584 1565 1575 1699 1677 1605 1629 1659 1681 1712 1839 1757
 1773 1883 1903 1823 1930 2463 2383 2381 2451 2288 2155 1991 1936 1828
 1744 1613 1604 1625 1689 1799 1838 1762 1766 1746 1716 1687 1744 1600
 1297 1252 1321 1490 1573 1575 1670 1865 1856 1935 2097 2035 2047 2139
 2022 1998 1954 1910 1915 1808 1623 1546 1472 1922 1970 1971 1959 1936
 2000 1872 1861 1951 1939 1846 1840 1931 1825 1849 1895 2032 2033 2039
 1883 1801 1710 1635 2081 2131 2174 2252 2206 2032 1934 1833 1735 1660
 1712 1604 1616 1744 1762 1783 1694 1813 1744 1785 1824 1971 1930 2041
 1663 1590 1702 1651 1727 1829 1977 2204 2340 2380 2495 2584 2596 2535
 2499 2195 1969 1862 1680 1458 1411 1547 1525 1872 2117 2153 2255 2311
 2314 2347 2245 2035 1936 1835 1794 1821 1808 1745 1821 1929 2061 2178
 2347 2282 2283 2343 1958 1979 1891 1811 1647 1716 1630 1702 1915 2025
 2224 2353 2320 2325 2276 2203 2161 2012 1808 1685 1584 1505 1482 1603
 1507 1671 1914 1952 2081 2283 2337 2369 2262 2349 2238 2246 2384 2321
 2470 2496 2378 2320 2211 2107 2059 1925 1723 1967 1946 1839 1838 1840
 1843 1847 1950 1861 1886 2030 2060 1973 1957 2007 1829 1762 1705 1786
 1805 1841 1787 1845 2129 2075 2115 2141 2184 2289 2315 2256 2281 2283
 2256 2205 2211 1989 1861 1839 1731 1566 1630 1618 1535 1600 1693 1767
 1615 1552 1296 1201 1270 1209 1312 1458 1649 1904 2061 2123 2291 2464
 2621 2750 2960 2866 2871 3009 3018 2895 2919 1549 1397 1507 1722 1841
 2114 2377 2601 2733 2802 2524 2305 2035 1791 1634 1408 1123  995  917
  912  975 1211 1250 1411 1488 1529 1478 1588 1707 1838 1984 2096 2307
 2375 2256 2198 2225 2141 1974]",1
5,sub0_amostra1_1,[ 881  790  700 ... 1712 1863 2034],1
6,sub0_amostra1_2,"[2038 1967 1914 1863 1799 1737 1778 1745 1731 1742 1760 1791 1739 1758
 1866 1863 1759 1697 1722 1562 1456 1408 1469 1462 1413 1794 1622 1433
 1325 1299 1325 1386 1460 1550 1712 1754 1761 1690 1714 1678 1568 1663
 1574 1606 1679 1741 1935 1938 1409 1564 1572 1616 1707 1894 1994 2038
 2101 2172 2197 2162 2069 1942 1906 1788 1701 1668 1664 1675 1661 1872
 2022 2160 2158 2192 2189 2085 2018 1953 1877 1803 1742 1758 1699 1593
 1499 1463 1437 1424 1415 1424 1533 1549 1565 1587 1617 1917 1872 1959
 2016 2011 2199 2208 2405 2399 2477 2654 2622 2670 2706 2787 2736 2601
 2417 2233 1992 1737 1479 1254 2218 2165 2190 2101 2001 1920 1814 1740
 1575 1517 1520 1448 1442 1446 1485 1547 1627 1719 1886 1951 1962 1953
 1968 2149 2103 2128 2161 2195 2209 2193 2243 2169 2084 2005 1939 1883
 1782 1769 1803 1757 1770 1770 1808 1922 1952 2039 2201 2363 2301 2271
 2123 1909 1714 1611 1547 1511 1515 1547 1673 1712 1757 1774 1873 1910
 1846 1829 1872 1811 1677 1632 1828 1921 1987 2133 2075 2079 2064 2112
 2042 1936 1829 1783 1749 1722 1682 1637 1690 1661 1645 1644 1647 1666
 1618 1558 1467 1317 1393 1442 1535 1597 1750 2016 2080 2193 2256 2352
 2323 2224 2093 1980 1927 1894 1882 1899 2032 2062 2064 2110 2130 2099
 2130 2102 1984 1956 2038 2037 1962 1970 1991 2006 2026 2057 2157 2169
 2134 2062 2023 1977 1925 1887 1935 1877 1809 1751 1815 1792 1781 1738
 1809 1808 1728 1719 1713 1810 1740 1759 1888 1901 1900 1962 2093 2112
 2095 2640 2767 2802 2761 2718 2605 2434 2240 2029 1939 1799 1709 1631
 1671 1683 1635 1767 1754 1719 1728 1715 1726 1797 1666 1685 1584 1485
 1504 1654 1761 1867 1972 2130 2265 2361 2384 2365 2423 2363 2352 2293
 2288 2215 2038 2032 1827 1852 1970 2133 2304 2282 2295 2373 2224 2154
 2080 2076 1994 1899 1791 1764 1740 1722 1697 1650 1694 1639 1600 1567
 1648 1549 1559 1648 1682 1637 1774 1814 1843 1787 1808 1919 1850 1873
 1903 1999 1991 1967 1961 1877 1858 1838 1815 1814 1939 2010 2166 2199
 2198 2127 2079 1943 1783 1692 1615 1558 1548 1531 1664 1668 1650 1698
 1819 1854 1846 1808 1847 1499 1426 1456 1513 1585 1641 1679 1778 1773
 1760 1682 1760 1768 1700 1819 1732 1723 1702 1664 1747 1697 1780 1918
 2153 2022 1991 2018 1981 1939 1887 1906 1905 1887 1859 1824 1874 1831
 1790 1729 1759 1760 1729 1775 1835 1973 1813 1803 1843 1707 1663 1744
 1669 1719 1798 1949 2000 2009 1967 1989 2007 2031 2033 2027 2105 2073
 2022 1949 1931 1871 1726 1667 1684 1647 1708 1872 1841 1898 1935 2057
 2035 2000 2032 2150 2160 2122 2019 1971 1938 1878 1836 1774 1799 1739
 1972 2007 2031 2032 2007 1972 1855 1926 1858 1855 1913 1973 2143 2176
 2135 2128 2162 2075 1948 1797 1746 1713 1707 1719 1699 1630 1587 1558
 1646 1635 1622 1593 1638 1670 1630 1770 1708 1733 1768 1782 1890 1792
 1776 1770 1849 1853 1841 1967 1984 1975 1906 1902 1890 1891 1908 1936
 2064 2087 2081 2021 1990 1917 1773 1731 1811 1818 1766 1822 1995 2054
 1697 1845 1897 1957 2003 2202 2293 2367 2384 2455 2493 2487 2435 2338
 2323 2180 2057 1893 1818 1743 1614 1606 1713 1909 1986 1877 1960 1869
 1859 1946 1899 1800 1772 1842 1843 1840 1808 1850 1877 1879 1847 1782
 1801 1711 1621 1505 1459 1690 1649 1690 1722 1696 1853 1813 1846 1870
 1861 1943 1841 1861 1922 2094 2193 2282 2299 2352 2362 2343 2236 2126
 2480 2544 2691 2705 2669 2551 2459 2322 2126 2033 2000 2042 1974 2023
 2108 2194 2288 2363 2519 2481 2384 2187 2032 1836 1700 1658 1631 1618
 1614 1620 1744 1793 1859 1931 2006 2166 2192 2288 2373 2454 2342 2270
 2275 2134 1923 1804 1791 1947 1786 1727 1606 1487 1360 1335 1347 1383
 1444 1523 1723 1833 1937 2016 2118 2178 2125 2143 2224 2257 2192 2222
 1986 1882 1875 1886 1971 1902 1906 1994 2000 1985 1920 1936 1964 2000
 2032 2058 2160 2158 2153 2142 2173 2162 2074 1856 1930 1867 1881 1974
 1968 1868 1851 1847 1843 1837 1831 1921 1917 1905 1851 1859 1927 1968
 2009 2041 2160 2170 2193 2182 2134 2059 2002 1936 1791 1755 1839 1761
 1809 1859 1923 2071 2054 2097 2220 2220 2178 2073 2016 1941 1906 1872
 2240 2234 2187 2115 2130 2059 1996 1931 1905 1854 1712 1669 1737 1731
 1665 1697 1739 1776 1781 1796 1869 1851 1819 2224 2128 2030 1862 1757
 1661 1590 1531 1524 1631 1741 1732 1818 1923 2033 2043 2070 2164 2129
 2080 1995 1911 1895 1698 1845 1895 1899 1989 2160 2219 2228 2164 2186
 2122 2096 2064 2035 2119 2097 2068 2039 1984 1993 1873 1839 1857 1668
 1686 1731 1746 1791 1835 1965 1904 1936 1963 2058 2057 2028 1942 1937
 1937 1948 1948 1939 1999 1946 1885 1803 1761 2283 2160 2047 1904 1686
 1589 1527 1623 1575 1645 1835 1926 1971 2109 2274 2320 2321 2239 2210
 2191 2184 2192 2224 2327 2333 2448 2485 2549 2620 2720 2797 2754 2794
 2831 2798 2769 2733 2697 2743 2643 2627 2687 2666 2633 2544 2547 2322
 2115 1981 1881 1835 1839 1888 2078 2179 2278 2337 2395 2404 2306 2283
 2261 2304 2190 2177 2183 2277 2224 2243 2335 2236 2176 2192 2127 2061
 1945 1924 1929 1951 1983 2023 2155 2172 2178 2158 2147 2122 2005 1986
 1984 2036 1947 1946 1845 1713 1669 1739 1709 1629 1634 1735 1762 1777
 1742 1777 1802 1813 1821 1829 1935 1954 1974 1978 2005 2016 1951 1889
 1881 1797 1801 1813 1925 1861 1883 1994 1998 1936 1936 2009 1987 1936
 1814 1762 1714 1706 1730 1805]",1
7,sub0_amostra1_3,"[1378 1278 1211 1178 1185 1284 1344 1417 1488 1573 1645 1677 1818 1899
 1999 2038 2170 2231 1884 1979 1979 2032 1950 1904 1869 1872 1839 1750
 1703 1648 1596 1559 1577 1610 1622 1646 1657 1662 1652 1573 1526 2231
 2267 2365 2318 2185 1936 1781 1583 1372 1150 1034  987 1042 1115 1181
 1309 1430 1545 1637 1721 1840 1898 1936 1957 1971 1986 2128 2167 2327
 2417 2617 2676 2814 2781 2771 2672 2482 2324 2155 2009 1829 1623 1515
 1441 1405 1409 1499 1818 1774 1798 1778 1778 1787 1743 1789 1722 1741
 1758 1806 1866 1984 2000 2035 2129 2096 2086 2059 2043 1968 1851 2389
 2430 2371 2315 2206 2065 1935 1887 1809 1753 1712 1627 1653 1570 1535
 1520 1520 1521 1593 1582 1545 1619 1600 1638 1783 1840 1931 2006 2111
 2116 2034 1984 1944 1869 1843 1872 1853 1851 1859 1808 1872 1815 1838
 1826 1829 1809 1843 2222 2193 2214 2128 2079 2022 2004 1990 1982 2007
 1983 1889 1830 1778 1728 1692 1723 1734 1774 1831 1846 1971 1991 1904
 1955 1899 1942 1945 1891 1883 1936 1875 1908 1897 1857 1878 1921 1989
 2000 1939 1914 1870 1820 1767 1785 1749 1861 1840 1840 1858 1834 1936
 1948 2033 2155 2136 2132 2154 2032 1920 1802 1690 1595 1547 1569 1567
 1511 1520 1523 1534 1919 1841 1758 1664 1620 1527 1453 1408 1351 1456
 1487 1625 1763 1987 2130 2378 2505 2690 2739 2653 2543 2386 2237 1364
 1254 1200 1124 1014  993  986 1003 1040 1175 1291 1444 1619 1758 2018
 2175 2382 2640 2815 2869 2960 2825 2644 2467 2000 2070 2083 1996 1941
 1872 1824 1735 1615 1582 1584 1610 1667 1792 1868 1879 1943 2055 2026
 2035 2030 2063 1957 1659 1718 1664 1731 1667 1731 1763 1777 1747 1776
 1799 1858 1854 1797 1809 1823 1854 1894 1984 2022 1998 2021 2089 2005
 2188 2227 2297 2325 2375 2321 2368 2303 2288 2308 2250 2121 2023 1923
 1855 1735 1570 1472 1389 1313 1255 1265 1264 1601 1612 1555 1554 1611
 1563 1553 1584 1677 1680 1744 1886 1947 1970 2086 2062 2069 2057 2065
 2012 1920 1913 1947 2090 2139 2153 2147 2127 2146 2096 1995 1967 1998
 1983 1889 1847 1823 1761 1673 1545 1492 1451 1497 1456 1490 1532 1792
 1735 1691 1693 1666 1618 1670 1773 1911 2081 2307 2448 2507 2621 2779
 2812 2935 2858 2813 2590 2357 2179 1965 2069 1996 2007 1951 1879 1751
 1686 1621 1610 1570 1480 1475 1489 1509 1543 1616 1630 1600 1631 1790
 1877 1988 2067 2234 1408 1401 1427 1409 1513 1510 1623 1702 1773 1781
 1850 1915 1989 1968 1857 1787 1713 1643 1585 1599 1571 1502 1509 1488
 1563 1717 1799 1950 2112 2294 2353 2436 2490 2512 2567 2518 2395 2315
 2235 2181 2064 1885 1792 1728 1707 1734 1767 1744 1758 1855 1903 1885
 1904 1943 1840 1746 1628 1549 1356 1251 1248 1226 1267 1346 1399 1520
 1645 1777 1823 1776 1424 1506 1520 1581 1636 1685 1738 1841 1887 1878
 1920 2014 1991 2013 2041 2091 2004 1969 1925 1935 1841 1871 1805 2002
 2064 2078 2156 2230 2333 2342 2238 2142 2016 1884 1763 1725 1654 1562
 1552 1635 1626 1683 1749 1871 1859 1936 1593 1580 1633 1682 1738 1830
 1868 1844 1871 1902 1962 1954 1877 1856 1848 1854 1873 1974 2028 2041
 2119 2246 2240 1996 1968 1982 1968 1966 1831 1789 1681 1522 1451 1467
 1396 1416 1472 1602 1655 1680 1761 1846 1918 1971 2065 2079 2026 2155
 2158 2205 2288 2228 2195 2176 2096 1936 1905 1778 1783 1706 1758 1713
 1734 1766 1836 1871 1823 1821 1811 1795 1930 1921 1908 1894 1920 1934
 1867 1862 1922 1869 1921 1874 1925 1859 1845 1838 1882 1807 1858 1794
 1790 1799 1861 1730 1728 1776 1781 1763 1765 1803 1837 1866 1945 1961
 1907 1904 1968 1929 1893 1899 1954 1897 1902 1983 2000 1973 2054 2112
 2100 2148 2086 2086 2113 2195 2239 2245 2277 2336 2374 2397 2434 2431
 2324 2283 2299 2218 2160 2119 2144 2047 2217 2246 2199 2238 2199 2207
 2225 2309 2274 2307 2335 2403 2384 2314 2254 2204 2159 2117 2125 2135
 2077 2083 2151 2029 2102 2079 2121 2055 2117 2046 2080 2028 2028 2080
 2070 2001 2000 2011 2085 2112 2111 2128 2170 2213 2254 2319 2373 2013
 2094 2070 2096 2176 2151 2144 2205 2208 2147 2160 2159 2158 2143 2138
 2075 2083 2095 2156 2160 2138 2112 2117 2121 2055 2000 1951 1902 1890
 1890 1822 1842 1937 1966 1985 2037 2142 2102 2130 2065 2082 2042 1995
 1889 1859 1835 1687 1725 1775 1867 1902 1900 1894 1908 1926 1936 1959
 1987 1911 1915 1969 1943 1961 1881 1915 1831 1807 1850 1819 1728 1707
 1711 1707 1776 1737 1770 1813 1920 1970 2000 2003 2055 2070 2064 2098
 2105 2002 1973 1997 1945 1889 1890 1946 1626 1601 1600 1535 1555 1582
 1616 1648 1735 1705 1727 1745 1802 1788 1727 1668 1635 1603 1581 1589
 1610 1552 1572 1997 2024 2070 1994 1897 1818 1799 1673 1632 1613 1679
 1623 1703 1658 1681 1712 1791 1818 1836 1840 1890 1936 1983 1584 1574
 1580 1633 1687 1665 1710 1813 1854 1875 1822 1959 1795 1763 1719 1681
 1653 1690 1616 1615 1621 1712 1724 1731 1900 1982 2064 2114 2199 2267
 2320 2385 2416 2314 2246 2215 2079 1917 1808 1776 1621 1629 1630 1653
 1696 1802 1742 1485 1489 1408 1420 1475 1615 1708 1773 1815 1893 1937
 1949 1941 1935 1802 1738 1723 1611 1567 1442 1462 1392 1407 1977 1941
 1933 1974 1890 1856 1914 1856 1870 1891 1956 1957 1925 1862 1831 1803
 1772 1764 1743 1622 1584 1610 1599 1582 1570 1581 1652 1815 1861 1965
 2063 2135 2225 2215 2102 2015 1923 1884 1790 1686 1589 1545 1514 1515
 1561 1623 1594 1775 1717 1728]",1
8,sub1_amostra0_0,"[1901 1853 1882 1904 1917 1915 1905 1895 1799 1795 1886 1904 1931 1954
 1984 1997 1924 1921 1909 1894 1877 1917 1920 1821 1807 1794 1819 1883
 1902 1854 1984 1968 1872 1856 1840 1820 1808 1803 1891 1909 1934 1955
 1951 1995 1919 1910 1899 1887 1874 1911 1922 1903 1808 1968 1983 1917
 1914 1929 1969 1949 1855 1842 1823 1808 1796 1790 1883 1895 1922 1949
 1968 1981 1904 1898 1886 1951 1859 1787 1875 1829 1909 1965 1976 1909
 1909 1924 1966 1949 1856 1842 1827 1808 1796 1792 1878 1901 1927 1949
 1981 2000 1926 1913 1891 1797 1786 1791 1805 1820 1911 1882 1902 1910
 1906 1919 1964 1939 1846 1833 1808 1798 1776 1779 1867 1901 1968 1957
 1942 1926 1913 1893 1799 1791 1875 1885 1825 1917 1967 1978 1913 1915
 1922 1969 1949 1861 1840 1823 1808 1885 1905 1919 1920 1915 1984 1968
 1952 1930 1917 1902 1803 1797 1794 1808 1834 1920 1968 1905 1916 1920
 1930 1968 1807 1828 1890 1906 1857 1887 1904 1919 1993 1916 1984 1969
 1955 1939 1922 1905 1811 1807 1807 1898 1840 1919 1969 1885 1924 1934
 1904 1814 1806 1824 1891 1908 1861 1892 1907 1928 1933 1926 1992 1980
 1965 1939 1872 1911 1819 1811 2007 1940 1939 1924 1909 1897 1938 1938
 1843 1824 1815 1837 1904 1920 1872 1904 1924 1936 1934 1926 1995 1978
 2033 1939 1947 1974 2000 2033 1943 1949 1936 1994 1903 1937 1942 1917
 1825 1808 1820 1891 1906 1856 1888 1910 1887 1933 1926 1837 1818 1813
 1903 1915 1938 1965 1995 2013 1937 1936 1933 1998 1903 1948 1949 1851
 1834 1822 1840 1906 1920 1872 1990 1973 1879 1863 1846 1830 1824 1809
 1899 1914 1953 1964 2000 2011 1942 1938 1926 1913 1897 1936 1937 1977
 1817 1986 2000 1937 1937 1947 2000 1982 1891 1876 1857 1840 1829 1821
 1907 1922 1989 1970 2000 2013 1950 1947 1935 1919 1904 1803 1808 1830
 1919 1966 1979 1919 1921 1926 1977 1958 1870 1852 1837 1821 1808 1792
 1879 1897 1925 1950 1979 1999 1946 1934 1914 1822 1811 1893 1823 1846
 1940 1987 2002 1939 1936 1945 1993 1974 1879 1861 1850 1824 1807 1801
 1885 1927 2000 1981 1968 1942 1933 1909 1811 1805 1803 1812 1840 1931
 1979 1999 1934 1933 1937 1986 1968 1874 1857 1831 1824 1897 1915 1938
 1922 1929 2011 2000 1983 1966 1939 1920 1831 1819 1818 1831 1851 1943
 1991 1932 1938 1937 1945 1997 1882 1897 1968 1986 1936 1968 1998 2013
 2016 2014 2093 2077 2066 2039 2032 2006 1920 1911 1886 2001 1947 2039
 2087 2001 2058 1968 1950 1931 1919 1927 1997 2013 1967 1996 2017 2035
 2039 2035 2111 2097 2082 2059 2046 2024 1933 1919 2070 1996 1993 2000
 2054 1957 2000 2015 1978 1885 1872 1883 1953 1968 1920 1947 1970 1985
 1991 1985 2058 2037 2014 1993 1955 1973 2006 2037 1962 1962 1948 1936
 1920 1968 1966 1939 1850 1835 1842 1909 1926 1875 1906 1932 1943 1947
 1944 1808 1792 1783 1870 1895 1909 1936 1968 1984 1918 1914 1981 1891
 1879 1925 1926 1834 1808 1792 1805 1872 1889 1840 1973 1954 1863 1848
 1828 1808 1794 1778 1871 1881 1904 1931 1958 1975 1904 1904 1979 1968
 1872 1920 1921 1904 1807 1956 1969 1907 1908 1919 1970 1950 1861 1842
 1827 1807 1791 1786 1871 1883 1909 1935 1969 1985 1920 1920 1991 1903
 1883 1777 1791 1825 1904 1951 1968 1905 1907 1910 1966 1950 1854 1840
 1819 1802 1790 1781 1862 1876 1904 1930 1961 1984 1910 1899 1873 1776
 1765 1842 1768 1792 1891 1936 1954 1893 1898 1904 1957 1937 1845 1831
 1809 1793 1775 1767 1851 1915 1984 1968 1954 1934 1919 1904 1805 1795
 1872 1804 1824 1921 1958 1981 1917 1920 1927 1979 1965 1871 1856 1833
 1814 1869 1895 1909 1913 1906 1973 1955 1943 1921 1906 1890 1793 1781
 1781 1792 1811 1911 1958 1902 1914 1878 1923 1979 1778 1786 1859 1873
 1818 1854 1881 1904 1909 1907 1976 1962 1942 1925 1904 1884 1788 1859
 1855 1783 1811 1906 1952 1866 1918 1918 1893 1798 1790 1794 1868 1882
 1827 1859 1886 1905 1915 1905 1975 1961 1945 1926 1913 1898 1797 1788
 1986 1918 1997 1904 1975 1878 1928 1925 1904 1810 1794 1807 1873 1902
 1842 1874 1902 1914 1919 1917 1985 1971 1923 1936 1934 1962 1990 2033
 1945 1949 1937 2000 1903 1963 1953 1984 1840 1816 1834 1905 1923 1878
 1904 1934 1938 1960 1958 1936 1919 1913 1995 2009 2033 2064 2098 2117
 2043 2043 2112 2017 2002 2060 2045 2026 1933 1907 1929 2002 2018 1948
 2096 2076 1974 1956 1936 1917 1901 1893 1972 1987 2007 2039 2067 2096
 2017 2015 2012 2084 1985 2038 1899 1939 1915 2017 2039 1982 1989 1989
 2054 2039 1935 1917 1895 1875 1855 1846 1930 1937 1968 1987 2023 2042
 1970 1971 1968 1950 1936 1903 1826 1847 1936 1983 1996 1936 1942 1945
 2001 1936 1893 1874 1858 1840 1828 1817 1900 1914 1937 1967 1998 2021
 1921 1899 1889 1794 1779 1781 1791 1817 1918 1874 1902 1924 1918 1919
 1974 1958 1885 1844 1827 1808 1791 1776 1861 1895 1968 1950 1906 1915
 1901 1885 1787 1779 1863 1786 1807 1909 1941 1888 1901 1904 1909 1963
 1947 1877 1837 1819 1802 1840 1869 1882 1889 1943 1956 1939 1931 1913
 1895 1873 1778 1767 1763 1821 1790 1887 1930 1871 1887 1882 1889 1950
 1765 1763 1840 1854 1831 1834 1857 1873 1881 1874 1947 1935 1917 1904
 1857 1866 1775 1839 1831 1769 1785 1884 1922 1854 1907 1904 1806 1791
 1776 1781 1858 1869 1827 1849 1865 1877 1883 1875 1945 1929 1910 1890
 1857 1869 1773 1760 1955 1882 1968 1954 1904 1851 1904 1904 1878 1780
 1772 1774 1847 1861 1840 1837]",0
9,sub1_amostra0_1,"[1872 1874 1882 1842 1872 1901 1917 1926 2004 1997 1987 1975 1894 1945
 1846 1834 1822 1837 1831 1929 2011 1918 1978 1970 1877 1929 1847 1840
 1915 1919 1924 1878 1904 1922 1936 1936 2010 1999 1984 1969 1887 1938
 1842 1877 1968 1907 1913 1911 1895 1887 1952 1937 1841 1827 1815 1806
 1879 1883 1887 1845 1871 1889 1902 1905 1979 1969 1859 1850 1872 1901
 1858 1945 1886 1894 1969 1883 1873 1938 1928 1835 1883 1857 1797 1872
 1874 1877 1838 1864 1880 1897 1854 1835 1819 1807 1885 1876 1890 1915
 1872 1967 1904 1909 1906 1973 1869 1941 1934 1840 1895 1809 1807 1874
 1881 1929 1995 1985 1966 1874 1858 1789 1827 1815 1891 1891 1907 1936
 1893 1988 1930 1937 1936 1926 1913 1969 1962 1938 1920 1952 1978 1920
 1933 1936 2007 1997 1970 1886 1872 1853 1839 1823 1899 1895 1910 1936
 1891 1986 1929 1932 2006 1840 1815 1806 1805 1809 1907 1861 1887 1906
 1921 1923 1998 1984 1959 1872 1860 1841 1826 1810 1878 1888 1899 1918
 1874 1950 1863 1919 1825 1810 1794 1798 1805 1904 1934 1874 1968 1907
 1910 1984 1968 1943 1862 1843 1826 1813 1792 1866 1908 1909 1987 1975
 1965 1952 1872 1921 1826 1808 1878 1871 1798 1899 1965 1947 1893 1904
 1931 1981 1968 1939 1860 1889 1893 1847 1874 1899 1915 1920 1996 1983
 1970 1958 1873 1925 1829 1808 1799 1794 1808 1904 1927 1841 1972 1908
 1914 1911 1821 1809 1883 1887 1889 1849 1874 1895 1911 1917 1992 1983
 1968 1958 1871 1911 1833 1841 1806 1802 1808 1906 1918 1898 1952 1945
 1850 1838 1814 1806 1852 1878 1884 1840 1859 1885 1901 1904 1983 1970
 1963 1941 1861 1915 1826 1853 1948 1885 1901 1900 1959 1875 1941 1904
 1839 1813 1804 1790 1857 1865 1869 1822 1849 1871 1889 1895 1973 1966
 1861 1858 1872 1894 1850 1962 1885 1922 1980 1965 1879 1941 1901 1835
 1819 1807 1793 1842 1870 1872 1825 1850 1870 1885 1869 1851 1834 1817
 1884 1877 1886 1904 1863 1954 1891 1927 1904 1968 1893 1963 1920 1859
 1841 1833 1825 1877 1905 2099 2131 2151 2128 2046 2032 2018 2005 1998
 2075 2075 2087 2114 2035 2161 2106 2118 2118 2112 2097 2165 2105 2144
 2149 2127 2201 2141 2151 2160 2192 2220 2194 2115 2107 2093 2079 2065
 2141 2140 2145 2162 2112 2202 2144 2151 2155 2112 2096 2165 2083 2093
 2178 2161 2225 2239 2176 2187 2228 2251 2229 2150 2139 2117 2112 2096
 2167 2162 2170 2190 2146 2214 2128 2183 2084 2066 2061 2047 2061 2152
 2138 2208 2160 2165 2175 2206 2240 2214 2128 2113 2098 2079 2064 2130
 2020 2032 2112 2103 2093 2078 1977 2035 1937 1920 1905 1905 1911 2005
 2000 1983 2003 2021 2026 2064 2083 2063 1969 1819 1820 1763 1791 1812
 1834 1840 1918 1913 1903 1889 1802 1865 1775 1783 1737 1726 1733 1825
 1815 1799 1823 1840 1846 1744 1735 1715 1750 1791 1794 1741 1769 1794
 1808 1821 1904 1895 1886 1867 1788 1840 1748 1759 1796 1780 1712 1803
 1807 1802 1884 1814 1842 1813 1727 1712 1739 1784 1781 1776 1750 1775
 1792 1805 1885 1879 1869 1854 1767 1826 1729 1762 1860 1805 1861 1823
 1899 1808 1874 1815 1845 1746 1730 1722 1747 1787 1791 1735 1762 1785
 1808 1817 1904 1898 1821 1821 1833 1841 1793 1872 1830 1882 1840 1838
 1821 1888 1830 1786 1769 1749 1737 1764 1808 1812 1756 1782 1805 1822
 1808 1794 1777 1763 1837 1830 1834 1850 1800 1903 1840 1903 1858 1865
 1842 1909 1850 1805 1786 1776 1759 1781 1830 1873 1904 1941 1925 1842
 1830 1812 1798 1785 1855 1850 1854 1872 1824 1919 1857 1923 1955 1882
 1863 1929 1872 1904 1881 1872 1853 1946 1894 1904 1925 1970 1954 1867
 1849 1837 1815 1797 1869 1862 1870 1887 1838 1936 1878 1943 1975 1819
 1852 1869 1787 1781 1873 1840 1920 1935 1872 1882 1905 1955 1938 1854
 1840 1824 1808 1792 1856 1863 1867 1883 1835 1955 1829 1923 1827 1857
 1795 1794 1771 1887 1861 1866 1918 1904 1908 1930 1972 1957 1871 1903
 1840 1821 1810 1881 1894 1904 1985 1980 1966 1953 1865 1922 1829 1865
 1801 1789 1788 1884 1853 1850 1943 1885 1893 1919 1963 1941 1853 1911
 1917 1865 1891 1917 1897 1943 2022 1970 2003 1984 1903 1955 1858 1901
 1830 1821 1824 1915 1887 1968 1982 1924 1936 1869 1849 1839 1854 1904
 1908 1855 1881 1904 1927 1936 2017 2011 2000 1987 1902 1954 1863 1902
 1917 1823 1862 1927 1936 1918 1983 1917 1883 1870 1851 1838 1849 1915
 1915 1859 1885 1905 1926 1936 2019 2013 2000 1987 1902 1958 1866 1865
 1964 1910 1981 2005 1921 1910 1973 1911 1872 1855 1840 1826 1840 1897
 1895 1838 1862 1878 1904 1917 1996 1991 1886 1847 1888 1905 1856 1958
 1904 1975 1926 1922 1917 1980 1909 1875 1859 1843 1834 1842 1897 1901
 1845 1872 1898 1917 1862 1846 1835 1814 1890 1882 1889 1906 1859 1966
 1904 1975 1925 2000 1913 1977 1904 1863 1844 1827 1811 1823 1879 1909
 1931 1991 1963 1872 1861 1844 1831 1812 1885 1878 1883 1898 1865 1951
 1898 1967 1918 1913 1909 1968 1900 1940 1888 1856 1936 1882 1901 1905
 1920 1970 1956 1863 1850 1829 1811 1796 1860 1859 1867 1884 1829 1934
 1875 1952 1977 1846 1886 1892 1808 1807 1904 1868 1951 1969 1909 1936
 1936 1987 1973 1894 1870 1842 1837 1823 1892 1893 1897 1909 1863 1974
 1882 1941 1842 1853 1808 1813 1808 1902 1863 1872 1892 1907 1918 1936
 1989 1970 1879 1866 1847 1834 1813 1883 1879 1893 1975 1968 1957 1943
 1858 1919 1826 1866 1793 1792 1787 1883 1842 1849 1925 1883 1895 1909
 1966 1950 1859 1873 1874]",0
10,sub1_amostra0_2,"[1955 1937 1897 1827 1809 1791 1779 1803 1847 1860 1887 1839 1950 1856
 1859 1830 1875 1791 1870 1842 1894 1854 1872 1974 1964 1917 1916 1975
 1958 1915 1843 1826 1808 1791 1811 1906 1913 1932 1968 1955 1936 1841
 1855 1808 1866 1781 1777 1838 1887 1843 1942 1891 1905 1910 1913 1968
 1927 1918 1872 1888 1943 1858 1894 1909 1915 1936 1978 1966 1953 1855
 1862 1818 1872 1867 1779 1838 1887 1841 1865 1886 1901 1872 1840 1822
 1808 1806 1879 1891 1895 1866 1891 1910 1918 1943 1986 1975 1959 1863
 1869 1804 1885 1878 1796 1855 1904 2003 1968 1979 1891 1863 1923 1884
 1814 1817 1893 1909 1909 1885 1917 1934 1938 1958 2006 1991 1975 1877
 1885 1840 1904 1934 1958 2046 1973 2045 2006 2014 1919 1901 1879 1859
 1847 1850 1923 1937 1942 1917 1937 1958 1968 1990 2033 1861 1873 1932
 1942 1970 1920 1970 1968 1982 1977 1971 2014 2026 1934 1909 1901 1935
 1860 1859 1936 1953 1956 1930 1965 1970 1898 1872 1857 1840 1859 1913
 1927 1947 1911 1958 1958 2043 2043 2034 1996 2000 1909 1966 1946 1850
 1839 1833 1914 1917 1918 1974 1959 1919 1845 1827 1813 1799 1811 1872
 1883 1907 1859 1906 1905 1984 1916 1981 1949 1953 1863 1866 1907 1866
 1970 1993 1984 1932 1930 1997 1972 1936 1862 1833 1822 1810 1826 1882
 1892 1917 1867 1910 1910 1995 1869 1831 1883 1797 1795 1856 1904 1861
 1964 1987 1986 1933 1934 2000 1980 1941 1871 1853 1835 1818 1830 1890
 1895 1931 1965 1948 1854 1857 1814 1872 1783 1859 1852 1894 1847 1957
 1973 1968 1920 1918 1981 1962 1931 1849 1833 1813 1802 1883 1917 1922
 1936 1984 1965 1945 1845 1846 1810 1870 1782 1786 1851 1893 1847 1872
 1891 1962 1904 1903 1967 1947 1805 1886 1904 1911 1879 1906 1925 1935
 1945 1995 1979 1968 1871 1875 1837 1895 1808 1882 1872 1915 1870 1898
 1917 1858 1837 1904 1804 1790 1791 1869 1882 1889 1856 1881 1895 1904
 1921 1968 1953 1939 1843 1846 1808 1866 1777 1856 1842 1987 1979 1947
 1948 1862 1840 1900 1806 1790 1787 1869 1883 1894 1860 1885 1902 1905
 1921 1973 1957 1942 1847 1850 1851 1900 1897 1985 2001 1984 1947 1950
 1859 1837 1897 1799 1776 1787 1866 1884 1894 1863 1888 1904 1911 1921
 1970 1799 1804 1872 1889 1914 1866 1928 1911 1999 2000 1907 1955 1961
 1871 1929 1906 1872 1797 1799 1879 1898 1915 1876 1904 1936 1852 1829
 1816 1808 1814 1877 1894 1918 1869 1913 1917 2000 1920 1986 1957 1959
 1865 1916 1899 1799 1791 1786 1969 1904 1907 1968 1947 1917 1842 1821
 1808 1797 1806 1869 1888 1910 1863 1909 1914 2000 1978 1911 1963 1958
 1870 1855 1890 1841 1949 1981 1904 1904 1903 1963 1942 1913 1827 1811
 1793 1776 1792 1849 1873 1897 1852 1893 1893 1986 1842 1809 1872 1791
 1790 1858 1904 1862 1964 1907 1915 1915 1916 1981 1964 1927 1847 1830
 1810 1803 1808 1875 1893 1921 1957 1943 1850 1840 1815 1878 1792 1794
 1872 1908 1863 1968 1910 1985 1922 1918 1978 1965 1933 1855 1831 1818
 1807 1911 1914 1933 1941 1993 1982 1967 1872 1869 1835 1894 1861 1885
 1877 1919 1873 1975 1997 1994 1914 1920 1984 1968 1835 1917 1935 1947
 1915 1938 1952 1956 1965 2015 1997 1979 1882 1889 1842 1904 1826 1895
 1898 1936 1893 2000 2038 1968 1873 1856 1842 1802 1821 1914 1959 1949
 1916 1939 1929 1961 2021 2020 2003 1987 1889 1891 1852 1909 1910 1826
 1903 1930 1918 1969 1969 1873 1854 1835 1814 1802 1803 1904 1913 1931
 1891 1915 1931 1931 1937 1990 1972 1959 1861 1873 1899 1942 1942 2026
 2032 1936 1986 1985 1898 1874 1926 1904 1835 1835 1920 1940 1958 1917
 1936 1952 1958 1967 2014 1808 1818 1888 1894 1937 1891 1927 1936 1943
 1941 1987 1986 1982 1889 1862 1840 1821 1808 1809 1893 1915 1927 1895
 1917 1939 1855 1840 1819 1808 1820 1891 1907 1939 1890 1932 1935 2015
 1935 2000 1968 1966 1869 1924 1904 1844 1795 1801 1914 1913 1905 1967
 1947 1915 1829 1814 1798 1792 1793 1871 1889 1926 1873 1917 1915 1997
 1888 1978 1939 1947 1852 1887 1923 1881 1984 1925 2000 1933 1927 1985
 1968 1936 1853 1837 1811 1799 1808 1882 1898 1926 1876 1914 1918 2000
 1831 1804 1866 1779 1781 1869 1905 1936 1884 1905 1917 1913 1904 1967
 1950 1921 1839 1814 1805 1792 1802 1873 1899 1926 1957 1939 1841 1839
 1808 1872 1789 1791 1874 1917 1869 1971 1911 1920 1898 1913 1975 1962
 1934 1847 1829 1816 1808 1917 1926 1929 1909 1985 1968 1951 1855 1851
 1824 1885 1802 1806 1889 1930 1883 1985 2000 2016 1926 1922 2064 1970
 1781 1872 1900 1918 1883 1904 1914 1911 1917 1967 1929 1930 1837 1822
 1793 1783 1774 1774 1909 1883 1856 1878 1977 1858 1834 1898 1792 1790
 1792 1890 1908 1936 1887 1910 1915 1916 1921 1974 1956 1939 1839 1839
 1808 1876 1792 1876 1881 1921 1909 1958 1951 1843 1840 1900 1803 1793
 1796 1887 1909 1931 1892 1911 1923 1922 1925 1981 1962 1942 1844 1840
 1872 1915 1909 1991 1986 1975 1943 1939 1847 1826 1808 1792 1789 1791
 1883 1907 1935 1872 1904 1912 1915 1917 1968 1781 1799 1877 1903 1937
 1879 1910 1921 2000 1991 1903 1957 1949 1855 1918 1819 1840 1799 1803
 1895 1916 1936 1895 1910 1931 1811 1824 1807 1803 1809 1853 1915 1942
 1893 1928 1933 2011 1927 1915 1968 1963 1870 1901 1909 1886 1808 1811
 1940 1937 1927 1990 1969 1938 1851 1833 1814 1804 1811 1895 1917 1946
 1895 1927 1935 2010 1985 1916 1968 1967 1871 1872 1907 1866 1968 1904
 1978 1904 1898 1935 1941 1917]",0
11,sub1_amostra0_3,"[1867 1957 1973 1922 1939 1947 1854 1840 1827 1822 1825 1911 1940 1964
 1913 1936 1938 2019 1936 1924 1985 1970 1879 1873 1845 1914 1824 1827
 1936 1927 1910 1910 1957 1936 1841 1826 1808 1799 1803 1894 1920 1947
 1891 1914 1919 1995 1905 1970 1957 1943 1850 1905 1936 1882 1918 1917
 1997 1909 1906 1904 1958 1937 1845 1831 1815 1808 1809 1895 1920 1944
 1892 1909 1917 1991 1828 1810 1881 1805 1892 1909 1941 1890 1924 2000
 2000 1920 1906 1905 1953 1933 1840 1818 1805 1792 1798 1887 1911 1936
 1955 1936 1840 1811 1808 1874 1794 1797 1891 1925 1872 1904 1985 1906
 1906 1895 1895 1947 1933 1836 1817 1806 1797 1918 1925 1924 1918 1981
 1968 1950 1854 1841 1822 1808 1872 1867 1909 1936 1888 1921 2002 1925
 1919 1911 1907 1959 1801 1842 1920 2010 1895 1910 1910 1909 1867 1966
 1950 1910 1840 1824 1820 1888 1797 1806 1904 1936 1883 1905 1920 1842
 1837 1805 1865 1781 1783 1808 1904 1927 1873 1899 1904 1903 1897 1959
 1943 1926 1836 1818 1802 1871 1781 1873 1889 1969 1891 1953 1947 1847
 1835 1901 1877 1802 1803 1831 1926 1951 1911 1917 1920 1917 1907 1967
 1947 1931 1835 1815 1890 1909 1921 2000 1915 1977 1959 1951 1847 1839
 1891 1873 1791 1794 1820 1909 1937 1887 1905 1917 1917 1910 1968 1800
 1805 1892 1914 1943 1894 1917 1923 2000 1930 1903 1965 1952 1857 1839
 1823 1808 1801 1765 1833 1922 1944 1891 1905 1918 1825 1805 1791 1780
 1785 1871 1893 1920 1868 1877 1901 1975 1889 1954 1937 1931 1840 1827
 1883 1791 1782 1785 1988 1907 1902 1898 1949 1933 1840 1823 1807 1794
 1796 1874 1904 1936 1886 1915 1926 2003 1991 1904 1968 1953 1856 1898
 1921 1873 1907 1990 1986 1921 1899 1899 1951 1932 1839 1822 1808 1799
 1803 1873 1913 1943 1891 1917 1923 2001 1830 1809 1874 1788 1794 1893
 1899 1950 1897 1915 1998 1911 1903 1895 1951 1934 1859 1818 1803 1792
 1793 1873 1904 1929 1963 1949 1853 1835 1845 1904 1805 1888 1904 1941
 1878 1911 1916 2000 1937 1908 1903 1958 1936 1846 1831 1808 1803 1920
 1930 1930 1936 1958 1974 1962 1860 1843 1815 1888 1807 1808 1903 1904
 1877 1913 1917 1925 1917 1905 1902 1949 1813 1835 1930 1954 1931 1922
 1932 1930 1922 1953 1968 1953 1854 1834 1847 1887 1802 1803 1891 1901
 1872 1899 1994 1875 1857 1923 1885 1851 1826 1846 1942 1968 1941 1937
 1941 1938 1934 1977 1978 1984 1867 1852 1860 1899 1822 1889 1906 1936
 1930 1995 1942 1879 1857 1841 1904 1851 1821 1840 1934 1956 1935 1922
 1936 1933 1926 1949 1973 1958 1865 1850 1889 1918 1965 2007 1934 1995
 1974 1933 1872 1850 1914 1812 1843 1805 1824 1916 1943 1926 1909 1921
 1923 1917 1939 1802 1799 1841 1899 1931 1872 1904 1946 1996 1911 1902
 1965 1905 1856 1836 1817 1802 1824 1791 1815 1906 1930 1918 1895 1942
 1882 1830 1811 1802 1801 1842 1904 1931 1877 1904 1953 2000 1985 1974
 1965 1911 1859 1851 1819 1810 1838 1801 1919 1954 1906 1899 1952 1936
 1871 1822 1802 1790 1787 1819 1871 1917 1860 1889 1943 1985 1904 1890
 1956 1904 1846 1882 1872 1856 1898 1908 1914 1975 1909 1904 1958 1941
 1885 1834 1811 1802 1795 1839 1900 1926 1872 1915 1954 2000 1883 1885
 1801 1879 1895 1881 1952 1898 1917 1925 1968 1904 1856 1949 1933 1876
 1817 1803 1781 1785 1828 1891 1920 1870 1937 1845 1829 1847 1872 1788
 1789 1888 1861 1858 1885 1985 1915 1957 1904 1897 1952 1936 1890 1826
 1806 1795 1793 1914 1917 1907 1933 1963 1942 1854 1840 1870 1809 1872
 1802 1893 1872 1869 1902 1987 1917 1967 1907 1904 1963 1943 1808 1904
 1927 1923 1901 1915 1919 1917 1936 1970 1954 1856 1840 1862 1878 1792
 1791 1882 1856 1856 1890 1904 1914 1958 1803 1786 1814 1767 1781 1877
 1913 1919 1899 1910 1920 1916 1923 1955 1936 1836 1815 1835 1853 1763
 1765 1861 1839 2007 1983 1910 1860 1833 1805 1859 1809 1761 1776 1875
 1917 1931 1909 1931 1936 1936 1942 1972 1950 1850 1824 1843 1900 1973
 2013 1932 1999 1983 1903 1855 1827 1799 1850 1802 1746 1766 1865 1899
 1920 1902 1921 1929 1926 1936 1965 1941 1888 1925 1885 1926 2005 2039
 1968 2025 2002 1934 1886 1869 1838 1891 1849 1793 1807 1904 1941 1955
 1938 1963 1967 1818 1795 1776 1769 1797 1868 1904 1861 1901 1975 2015
 1942 1999 1979 1904 1856 1837 1871 1789 1822 1766 1785 1877 1943 1936
 1985 1967 1920 1843 1821 1803 1805 1820 1893 1926 1888 1889 2005 2039
 1969 1950 2010 1936 1891 1872 1916 1853 1895 2001 1940 2000 1936 1930
 1982 1959 1918 1829 1805 1780 1774 1795 1865 1901 1857 1894 1977 2010
 2011 2001 1981 1772 1770 1934 1840 1932 1851 1929 2019 2003 1937 1929
 1977 1951 1904 1825 1798 1778 1771 1793 1867 1904 1869 1909 1874 1854
 1878 1883 1794 1783 1867 1856 1872 1919 1942 1989 2021 1955 1938 1991
 1968 1919 1840 1813 1793 1787 1813 1971 1971 1974 2013 1985 1885 1863
 1890 1890 1795 1778 1881 1857 1877 1926 2030 2047 2032 1965 1955 2003
 1984 1939 1856 1914 1930 1905 1931 1936 1936 1936 1974 1954 1851 1827
 1858 1862 1775 1846 1863 1840 1856 1920 2016 1958 2020 1953 1801 1835
 1774 1783 1877 1911 1933 1907 1933 1946 1943 1950 1987 1968 1867 1842
 1872 1872 1776 1775 1865 1839 1864 2007 1947 1878 1860 1910 1886 1843
 1777 1787 1885 1920 1941 1917 1945 1958 1955 1957 1994 1968 1867 1842
 1872 1873 1987 2015 1946 1926 1989 1915 1874 1855 1913 1891 1856 1776
 1794 1886 1914 1930 1903 1922]",0
12,sub1_amostra1_0,"[1749 1584 1504 1294 1072  988  801  767  855 1015 1126 1332 1534 1741
 1934 2067 2112 2184 2235 2282 2283 2195 2101 1863 1742 1619 1565 1447
 1326 1338 1481 1483 1553 1621 1760 1790 1778 1648 1582 1520 1511 1523
 1499 1428 1442 1456 1465 2453 2326 2211 2133 2143 1992 1889 1812 1649
 1444 1357 1370 1259 1262 1271 1321 1493 1648 1759 1974 2221 2497 2802
 3033 1267 1238 1248 1303 1531 1799 2007 2128 2225 2138 2111 2135 2032
 1827 1649 1543 1296 1198 1235 1247 1303 1393 1456 2252 2242 2166 2177
 2195 2266 2429 2643 2828 2992 2971 2733 2326 1936 1446 1158 1072  989
  918  995 1226 1341 1545 1755 1460 1487 1588 1738 1748 1840 1783 1789
 1789 1805 1836 1837 1779 1808 1841 1882 1937 2112 2215 2268 2245 2098
 2075 1298 1117  813  645  528  475  503  659  695  689  803  773  839
  970 1166 1329 1424 1571 1681 1772 1836 1959 1978 1971 1946 1834 1920
 1885 2017 2036 2233 2465 2729 2922 3278 3318 3150 2971 2591 2256 1938
 1680 1392 1070  861  709  624  623  761  880 2304 2271 2313 2285 2240
 2171 2096 2032 1984 2030 2128 2337 2453 2575 2448 2288 2063 1858 1728
 1599 1455 1426 1439 1457 2369 1978 1651 1402 1338 1281 1314 1425 1546
 1851 2033 2333 2621 2794 2797 2877 2795 2752 2621 2575 2525 2512 2554
 1769 2000 2334 2633 2785 2870 2805 2641 2414 2256 2054 1920 1860 1786
 1872 1782 1750 1731 1562 1456 1465 1423 1424 2324 2077 1808 1569 1367
 1217 1131 1102 1042  965 1008 1089 1220 1402 1714 1965 2214 2442 2579
 2848 2927 2997 3039 2864 2463 1966 1488 1134  899  738  855  975 1041
 1162 1280 1396 1424 1391 1515 1600 1805 2090 2465 2762 3011 3043 2967
 2687 1104 1226 1328 1335 1387 1464 1433 1321 1366 1344 1441 1569 1696
 1854 2064 2194 2250 2359 2365 2219 1953 1666 1478 2480 2992 3482 3847
 3775 3289 2676 2003 1552 1152  839  774  880  917  998 1075 1157 1277
 1423 1504 1520 1650 1833 2097 2420 1125 1272 1392 1459 1527 1697 1803
 1921 1979 2206 2288 2311 2422 2410 2256 2160 1997 1919 1666 1449 1248
 1113  965 1798 1763 1670 1520 1457 1408 1373 1329 1303 1290 1379 1399
 1427 1478 1547 1550 1730 1778 1927 2093 2287 2379 2368 1853 1791 1856
 1776 1765 1776 1838 1841 1799 1857 1927 1963 1946 1888 1870 1751 1648
 1549 1465 1408 1297 1387 1344 1349 1391 1412 1499 1414 1456 1470 1460
 1386 1371 1361 1389 1369 1295 1329 1401 1498 1605 1696 1840 1886 1904
 1901 1885 1648 1791 1957 2054 2185 2237 2214 2128 2059 1934 1699 1520
 1370 1275 1275 1269 1252 1317 1351 1328 1269 1200 1225 1840 1906 1909
 1918 1914 1891 1845 1719 1711 1730 1751 1765 1817 1826 1749 1776 1843
 1957 2161 2356 2576 2930 3317 3583 2114 1859 1571 1279 1040  962  913
 1008 1113 1339 1616 1814 2157 2291 2470 2384 2359 2201 2207 2093 2082
 2092 2106 1808 1904 2026 2071 2015 1998 1936 1864 1807 1824 1776 1722
 1609 1648 1575 1621 1507 1483 1550 1543 1462 1495 1499 1884 1903 1978
 1946 1839 1792 1747 1761 1733 1659 1698 1770 1872 1985 2159 2208 2212
 2110 2073 2016 2069 2002 2065 2197 2291 2220 2178 2043 1914 1721 1616
 1623 1533 1558 1631 1782 1885 1917 2059 2219 2405 2594 2849 3055 3287
 3392 3555 2240 2176 2134 2158 2285 2308 2436 2503 2608 2695 2960 3163
 3185 3175 3089 2942 2635 2192 1808 1458 1169  957  902  810 2180 2165
 2062 2033 2130 2119 2250 2519 2667 2832 2933 2992 3024 2973 2891 2761
 2591 2397 2257 2063 1802 1655 1552 1937 1989 1998 1976 1963 1956 1973
 2106 2199 2377 2544 2810 2842 2691 2522 2445 2294 2210 2224 2321 2202
 2057 1867 1753 1606 1487 1485 1475 1470 1616 1831 2080 2288 2420 2499
 2620 2608 2573 2448 2483 2458 2418 2551 2544 2742 2821 2949 2316 2309
 2300 2268 2233 2241 2331 2523 2647 2628 2637 2637 2646 2700 2754 2758
 2747 2571 2357 2093 1995 1861 1746 2170 2318 2481 2721 3035 3152 3342
 3357 3301 2880 2494 2111 1799 1488 1191 1070 1022 1071 1147 1252 1357
 1506 1575 1717 1953 2263 2494 2817 2967 2966 3023 2957 2795 2734 2627
 2542 2224 1970 1791 1780 1819 1827 1902 1966 1978 2066 2102 1648 1591
 1535 1502 1567 1566 1575 1510 1611 1617 1617 1717 1841 2045 2070 2104
 2192 2083 2003 1866 1776 1634 1471 2041 2009 1845 1725 1600 1467 1381
 1337 1347 1488 1622 1826 2031 2424 2673 2740 2737 2640 2476 2321 2183
 2099 2064 1742 1791 1826 1829 1810 1833 1776 1647 1613 1618 1661 1725
 1802 1902 2115 2262 2393 2389 2478 2408 2257 2260 2144 1489 1467 1534
 1471 1520 1550 1599 1631 1658 1757 1737 1690 1553 1488 1424 1349 1350
 1351 1392 1550 1635 1728 1747 1910 2219 2179 2207 2261 2229 2239 1997
 1896 1671 1551 1571 1483 1512 1582 1711 1786 1759 1814 1850 1922 1988
 2064 2119 1891 1872 1943 1940 1935 1868 1959 1958 1891 1902 1949 2061
 2205 2306 2419 2324 2273 2207 2197 2107 1934 1831 1747 2079 2195 2328
 2451 2567 2640 2673 2746 2709 2634 2405 2382 2128 1916 1840 1838 1719
 1709 1692 1703 1715 1719 1731 1803 1936 1819 1729 1564 1419 1396 1440
 1493 1650 1808 2000 2274 2448 2605 2640 2831 2921 2923 2923 2908 2727
 2414 2160 1204 1309 1468 1664 1872 2101 2333 2597 2724 2667 2559 2375
 2162 1957 1767 1621 1607 1575 1599 1600 1787 1891 1939 1795 1776 1731
 1773 1805 1829 1822 1755 1749 1563 1440 1349 1344 1296 1213 1235 1266
 1296 1328 1354 1377 1489 1522 1744 1724 1725 1761 1871 2014 2131 2384
 2502 2559 2527 2511 2509 2273]",1
13,sub1_amostra1_1,"[1527 1411 1283 1478 1761 1938 2224 2624 2955 3216 3519 3802 4095 4085
 3934 3539 3201 2941 2611 2293 1968 1759 1616 1531 1509  483  703  992
 1389 1765 2065 2448 2861 3058 3200 3147 3009 2609 2193 1795 1522 1264
 1014  951  993 1211 1414 1664 1904 2240    0   94  348  677 1037 1366
 1680 1840 1903 1800 1747 1601 1478 1488 1423 1600 1815 2015 2429 2709
 3177 3479 3733 3930 1286 1167 1121 1019  931  832  846  917 1072 1378
 1648 1984 2253 2570 2899 3001 3147 3078 2905 2603 2267 1888 1486 1220
 1562 1730 1774 1837 1871 1879 1906 1814 1696 1520 1421 1331 1280 1287
 1456 1616 1845 2116 2329 2640 2722 2877 2752 2415 2494 2698 2832 2846
 2962 2832 2813 2655 2421 2250 2131 1909 1662 1377 1232 1139 1113 1175
 1383 1584 1857 2238 2653 1429 1394 1569 1657 1872 2121 2397 2725 3184
 3550 4095 4095 4095 4095 4095 3658 3017 2354 1718 1075  528  121    0
    0    0 2863 2773 2741 2796 2832 2880 2847 2919 2743 2573 2373 2245
 2174 2138 2110 2113 2233 2349 2525 2722 2968 3079 2869 2450 1365 1284
 1255 1328 1474 1552 1625 1707 1809 1937 2032 2288 2421 2470 2579 2669
 2823 2867 2832 2845 2883 2781 2627 1008 1057 1157 1229 1367 1483 1564
 1598 1609 1680 1674 1691 1766 1947 2208 2465 2861 3334 3942 4095 4095
 4095 4031 1850 1926 2037 2218 2417 2672 2767 2688 2399 2097 1806 1594
 1476 1471 1664 1807 1911 1878 1763 1586 1349 1234 1183 2032 2170 2311
 2423 2544 2626 2751 2736 2639 2655 2604 2535 2474 2384 2378 2433 2427
 2381 2243 2112 1891 1715 1707 1791 3115 3191 3246 3209 3013 2913 2539
 2258 1798 1424 1159  854  535  331  270  223  237  285  491  752 1047
 1350 1655 2005 2208 2114 1779 1552 1382 1172 1029 1015  990  954 1123
 1237 1297 1446 1666 1771 1969 2293 2624 3071 3728 4095 4095 4095 4095
 1424 1341 1264 1201 1211 1356 1483 1662 1771 2032 2137 2384 2471 2640
 2781 2910 2725 2558 2186 1870 1662 1471 1344 2144 2117 2113 2039 1968
 1857 1744 1667 1584 1582 1698 1779 1904 2014 2304 2391 2704 2935 3164
 3363 3689 3696 3742 1267 1477 1811 1913 1968 2010 1914 1774 1563 1435
 1321 1248 1223 1232 1264 1415 1505 1600 1621 1785 1781 1850 1968 3137
 3095 3014 2822 2570 2373 2083 1971 1840 1738 1652 1474 1271 1062  996
 1085 1120 1309 1522 1778 2098 2315 2513 2586 1926 1856 1777 1634 1648
 1505 1535 1413 1410 1386 1470 1424 1456 1570 1600 1625 1599 1650 1728
 1826 1956 2126 2383 1014 1127 1303 1562 1790 1968 2013 1914 1889 1681
 1616 1427 1407 1456 1387 1393 1395 1479 1511 1586 1649 1824 2011 2201
 2338 2352 2338 2322 2315 2398 2398 2352 2233 2077 1889 1646 1525 1490
 1554 1709 1951 2182 2502 2665 2846 3071 3255 4095 4095 3888 3341 2786
 2362 1951 1565 1226  928  767  583  462  400  426  509  624  749  943
 1142 1331 1525 1660 1794 1872 2938 2786 2618 2357 2099 1846 1639 1488
 1547 1673 1851 2081 2453 2726 3049 3397 3429 3211 3187 3147 3147 3375
 3701 2301 2339 2391 2320 2133 1984 1727 1575 1433 1378 1367 1350 1312
 1386 1478 1585 1689 1839 1808 1840 1952 1985 1975 2134 2682 2353 1937
 1726 1439 1376 1424 1643 1799 1997 2014 2056 2053 2092 2138 2179 2154
 2099 1920 1696 1481 1399 1262 1521 1420 1405 1477 1474 1488 1519 1526
 1457 1475 1568 1582 1585 1722 1786 1962 2175 2417 2638 2786 2793 2751
 2576 2192 2246 2299 2349 2421 2543 2544 2618 2752 2774 2674 2549 2419
 2070 1799 1520 1289 1143 1074  931  932  981 1115 1266 2666 2881 3087
 3163 3051 2923 2747 2550 2393 2349 2290 2272 2287 2226 2305 2218 2235
 2242 2205 2047 2010 1820 1639 2021 2001 1983 1997 2008 2024 2053 2076
 2047 1920 1901 1901 1915 1936 2033 2057 2080 2105 2069 2178 2135 2177
 2231 1237 1365 1655 1904 2118 2474 2673 2799 3034 3110 3251 3374 3313
 3054 2672 2438 2183 1936 1687 1507 1280 1102  981  867 2283 2149 2163
 2129 2086 2033 2122 2145 2095 2175 2294 2442 2599 2866 3215 3596 3827
 3842 3855 3663 3355 3054 2867 2666 2371 2409 2326 2288 2317 2275 2176
 2203 2252 2178 2238 2229 2203 2161 2250 2192 2202 2224 2221 2157 2019
 1941 1936 3019 3024 2963 2846 2701 2635 2509 2358 2395 2461 2539 2544
 2675 2781 2714 2722 2497 2339 2169 1966 1744 1654 1646 2512 2526 2571
 2611 2592 2496 2468 2442 2416 2400 2459 2451 2363 2383 2498 2493 2599
 2731 2965 3037 3253 3184 3200 4095 3862 3482 3138 2931 2639 2487 2426
 2418 2381 2289 2276 2261 2239 2218 2269 2255 2195 2213 2327 2385 2384
 2461 2644 2864 2834 2913 2871 2989 2901 2967 3049 3093 3065 3120 3202
 3306 3312 3203 3171 3126 3084 3056 3116 3037 2846 2723 2768 2780 2896
 2975 2973 3120 3312 3335 3541 3563 3503 3562 3618 3636 3856 4095 4095
 4095 3871 3601 3293 3018 2810 4007 3973 3938 3879 3627 3232 2982 2864
 2711 2545 2581 2815 2994 3363 3784 4030 4095 3833 3349 3037 2895 2662
 2487 2298 3062 3088 3039 3083 3111 3136 3191 3358 3445 3461 3653 4019
 4095 4095 4095 4095 4095 4095 4095 4073 3824 3697 3350 4095 4095 4095
 4095 4095 4095 4095 4095 4095 4095 4095 4095 4095 4095 4095 4095 4095
 4095 4095 4095 4095 4095 4095 1914 1840 1841 1840 1861 1917 1909 1835
 1840 1859 1916 1904 1833 1832 1834 1829 1835 1904 1907 1850 1829 1904
 1922 1701 1744 1697 1772 1874 1840 1829 1774 1696 1450 1298 1002  817
  713  678  643  579  624  695  773  859 1010 1102 1139 1309 1616    0
    0    0    0    0    0    0]",1
14,sub1_amostra1_2,"[ 752  482  169    0    0    0    0  110  304  686 1241 1703 2255 2789
 3426 3994 4091 4095 3951 3553 3056 2688 2374 2569 2005 1436  932  411
    1    0    0    0    0   17  226  392  766  987 1293 1600 1918 2321
 2642 2928 3243 3694 4095 4095 4095 4095 4095 2818 2414 2041 1729 1275
  879  422  207    0    0   26  246  621  999 1336 1764 2237 2721 3063
 3278 3402 3482 3505 3473 3441 3376 3009 2651 2198 1514  745    0    0
    0    0    0    0    0    0    0    0    0  284  789 1514 2210 2850
 3456 4044 4095 3790 3140 2513 1937 1296  788  465 2771 2385 2087 1856
 1765 1728 1964 2342 2885 3355 3914 4095 3847 3249 2689 2027 1330  682
  174    0    0    0    0    0    0    0    0    0    0    0  239  158
  343  481  809 1197 1718 2128 2688 3089 3659 4095 4095 4095 3633 3003
 2519 2058 1634 1257  881  483   48    0    0    0    0    0 1623 1406
 1333 1104  990  951 1052 1088 1370 1570 1873 2178 2483 2653 2698 2645
 2611 2559 2539 2535 2647 2608 2434 2149 1857 2090 2287 2283 2243 2246
 2175 2111 2204 2289 2320 2480 2475 2346 2160 1933 1560 1145  790  621
  615  754 1040 1399  309  787 1167 1506 1797 1986 2078 2192 2139 2141
 2128 2112 2075 2036 1850 1494 1232  884  637  529  420  361  363  478
  644 2192 2293 2370 2450 2544 2688 2710 2838 3031 3045 2944 2909 2641
 2450 2301 2251 2369 2497 2590 2755 2872 3024 3067 3068    0    0    0
   33  144  357  623  907 1226 1477 1737 2037 2245 2397 2582 2692 2659
 2651 2640 2555 2345 2290 2078 1968 1897 1868 2481 2502 2496 2512 2391
 2240 2063 1977 1952 1989 2096 2210 2210 2150 1996 1971 1955 2018 2123
 2259 2443 2559 2640 1476 1182  849  584  398  298  303  477  817 1151
 1484 1786 2096 2319 2416 2410 2315 2122 1942 1746 1726 1712 1771 1857
 1955 1631 1579 1622 1570 1557 1659 1683 1682 1643 1600 1650 1804 1915
 2023 2110 2223 2288 2278 2234 2198 2130 2057 2166 3418 2912 2544 2112
 1776 1555 1312 1070  966  816  802  865 1057 1172 1370 1642 1811 1941
 2019 2119 2190 2256 2343 2454 2102 2062 2120 2136 2202 2318 2418 2658
 2778 3140 3541 4007 4095 4095 4095 4080 4095 3912 3405 3051 2715 2481
 2356 2207 2212 2239 2368 2543 2747 2999 3430 3821 4095 4095 4072 3838
 3323 3001 2731 2613 2398 2422 2349 2385 2497 2499 2559 3707 4095 4095
 4095 4095 4095 4095 4095 4095 4095 4095 4095 4095 4095 4095 4095 4095
 3969 3694 3068 2749 2337 2178 3122 2848 2728 2492 2451 2347 2253 2256
 2368 2430 2484 2510 2581 2639 2685 2725 2855 2917 3008 3120 3153 3349
 3343 2451 2544 2519 2599 2767 2781 2845 3027 3110 3167 3133 3249 3443
 3886 4095 4095 4095 4095 4095 4095 4095 4095 4095 2892 2965 2970 2864
 2676 2655 2485 2448 2493 2679 2832 3249 3583 4076 4095 4084 3678 3286
 2885 2608 2398 2352 2370 2416 1520 1275 1115 1040 1120 1171 1261 1358
 1407 1569 1646 1888 1968 2199 2239 2371 2383 2330 2187 2127 2076 2097
 2039 3151 3328 3055 2748 2383 2117 1917 1825 1836 1995 2085 2123 2074
 1883 1759 1472 1298 1276 1175 1232 1435 1630 1851 4095 4095 4095 4095
 4095 4095 4095 4095 4095 4095 4095 4095 4095 4095 4095 4095 4095 4095
 4095 4095 4095 4095 4095 4095 4095 4095 4095 4095 4095 4095 4095 4095
 4095 4095 4095 4095 4095 4095 4095 4095 4095 4095 4095 4095 4095 4095
 4095 4095 4095 4095 4095 4095 4095 4095 4095 4095 4095 4095 4095 4095
 4095 4095 4095 4095 4095 4095 4095 4095 4095 4095 4095 4095 4095 4095
 4095 4095 4095 4095 4095 4095 4095 4095 4095 4095 4095 4095 4095 4095
 4095 4095 4095 4095 4095 4095 4095 4095 4095 4095 4095 4095 4095 4095
 4095 4095 3917 3735 3373 3182 3025 2985 2813 2769 2556 2422 2385 2269
 2256 1815 1700 1584 1533 1433 1345 1250 1220 1154 1103 1009 1005  935
  883  871  842  967  977 1083 1173 1327 1341 1495 1555  542  592  578
  451  434  273  166  149   81   23    0    0    0    0    0   79   90
  102   47   83   96  221  208  373  389  466  643  639  759  695  687
  670  716    0    0    0    0    0    0    0    0    0    0    0    0
    0    0    0   28   35    0   52   15    0    0    3   13   87   48
   71  170  193  205  174  213  266  313  413  507  679  685  752  861
  880  591  719  713  749  829  694  570  560  362  306  101    0    0
    0    0    0    0    0    0    0    0    0    0   14   46   10   73
  112  165  207  327  302  397  341  437  454  409  357  302  471  578
  783 1030 1172 1245 1206 1168 1058  910  768  695  528  464  528  525
  524  592  526  496  525  503  423  446 1734 1851 1867 1776 1726 1649
 1553 1505 1382 1258 1105 1067 1070 1126 1237 1465 1641 1839 2045 2205
 2463 2513 2570    0    0    0    0    0    0    0    0    0    0    0
    0    0    0    0    0    0    0    0    0    0    0    0    0    0
    0    0    0    0    0    0    0    0    0    0    0    0    0    0
    0    0    0    0    0    0    0    0    0    0    0    0    0    0
    0    0    0    0    0    0    0    0    0    0    0    0    0    0
    0    0    0    0    0    0    0    0    0    0    0    0    0    0
    0    0    0    0    0   65    0    0    0    0    0    0    0    0
    0    0    0    0    0    0    0    0   64  208  601  901 1324 1744
 4095 4095 4095 4095 4095 4095 4095 4095 4095 4095 4095 4095 4095 4095
 4095 4095 4095 4095 4095 4095]",1
15,sub1_amostra1_3,"[   0    0    0    0    0    0    0    0    0    0    0    0    0    0
    0    0    0    0    0    0    0    0    0    0    0    0   15    0
    0    0    0    0    0    0    0    0    0    0    0    0    0    0
    0    0    0    0    0    0    0    0    0    0    0    0    0    0
    0    0    0    0    0    0    0    0    0    0    0    0    0    0
    0    0    0    0    0    0    0    0    0    0    0   25  208  287
  495  549  631  667  660  545  336  195   61    0    0    0    0    0
    0   71 1460 1281  942  575   89    0    0    9    0    0    0    0
    0    0    0   44  123  130  198  240  263  278  345  235  192  230
  188   91  201  257  400  566  678  888 1168  950  659  356  330  244
  389  687 1105 1665 2211 2702 3285 3960 4095 4095 3992 3408 2819 2139
 1473  912  477   95    0    0    0    0  570  882 1281 1507 1857 2013
 2208 2338 2421 2475 2384 2126 1936 1730 1439 1199 1010  927 1070 1203
 1502 1895 2321 2643 1473 1419 1404 1449 1463 1458 1558 1571 1549 1584
 1614 1643 1667 1728 1703 1603 1569 1531 1507 1477 1552 1545 1573 1623
 2073 2262 2399 2688 2801 2992 3211 3157 3104 3061 2835 2658 2486 2304
 2103 1914 1821 1722 1603 1594 1592 1567 1515 1821 1877 1915 2022 2035
 2054 2058 1982 2036 1939 1968 2001 2182 2231 2446 2516 2625 2752 2864
 2955 3024 3141 3120 2858 2819 2705 2533 2455 2384 2329 2288 2288 2212
 2148 2118 2054 2150 2117 2231 2317 2302 2356 2459 2449 2384 2468 2301
 2224 2029 1915 1808 1744 1739 1680 1557 1510 1486 1486 1510 1634 1687
 1755 1832 1840 1999 2075 2073 2115 2215 2138 1386 1615 1670 1872 1965
 1988 2144 2127 2176 2226 2320 2343 2286 2298 2295 2298 2304 2398 2431
 2475 2531 2527 2704 4095 4095 4095 4095 4095 3788 2970 2384 1633  804
   16    0    0    0    0    0    0    0    0    0    0    0    0    0
    0    3  288  481  966 1501 2176 2746 3710 1907 2067 2057 2166 2203
 2147 2170 2174 2150 2150 2075 1969 1985 2037 2112 2164 2256 2177 2160
 2185 2091 1902 1773 1712  262  271  444  549  789 1163 1473 1801 2127
 2368 2659 2919 3131 3291 3255 3026 2866 2637 2308 1908 1467 1060  784
  535 4095 4042 3558 2949 2352 1903 1278  785  304    0    0    0    0
    0    0   55  192  336  448  688  964 1307 1691 2096 2509 3012 3462
 3809 3917 1886 1722 1674 1535 1589 1792 1962 2146 2292 2598 2809 2885
 2896 2761 2482 1953 1335  774  304    0    0    0    0  123  209  421
  674    0    0    0    0    0    0    0    0    0    0    0    0    0
    0    0    0    0    0    0    0    0    0    0    0    0    0    0
    0    0    0    0    0    0    0    0    0    0    0    0    0    0
    0  180  417  631  678  474   89    0    0    0    0    0    0    0
    0    0    0    0    0    0    0    0    0    0    0    0    0    0
    0    0    0    0    0    0    0    0    0    0    0    0    0    0
    0    0    0    0    0    0    0    0    0    0    0    0    0    0
    0    0    0    0    0    0    0    0    0    0    0    0    0 1041
 1136 1209 1312 1274 1377 1291 1232 1077  881  550  130    0    0    0
    0    0    0    0    0    0    0    0    0    0    0    0    0    0
    3   16   11   60  114  226  267  216  278  378  432  577  727  899
 1085 1351 1526 1589 1686 1765 1565 1294  990  459    0    0    0    0
    0    0    0    0    0    0    0    0    0    0    0    0  208  412
  653   42  125  227  272  470  511  631  746  906  979 1041 1003 1093
 1088  995  974  953  990  961  865  857  865  893  938 1003 1196 1335
 4095 4095 4095 4095 4095 3855 3263 2958 2780 2714 2771 3006 3199 3569
 4095 4095 4095 4095 4095 3871 3339 2779 2209 1648    0    0    0    0
    0    0    0    0    0    0    0    0    0    0    0    0    0    0
    0    0    0    0    0    0    0    0    0    0    0    0    0    0
    0    0    0    0    0    0    0    0    0    0    0    0    0    0
   81    0    0    0    0    0    0    0    0    0    0    0    0    0
    0    0    0    0    0    0    0    0    0    0    0    0    0    0
    0    0    0    0    0    0    0    0   92    0    0    0    0    0
    0    0    0    0    0    0    0    0    0    0    0    0    0    0
    0    0    0    0    0    0    0    0    0    0    0    0    0    0
    0    0    0    0    0    0    0   18  172  332  551  679  717  802
  851  863  834  831  688  605  612  475  528  452  579  559  624  690
  867  894 1117 4095 4095 4095 4095 4095 4095 4095 4095 4095 4095 4095
 4095 4095 4095 4095 4095 4095 4095 4095 4095 4095 4095 4095 4095 4095
 4095 4095 4095 4095 4095 4095 4095 4095 4095 4095 4095 4095 4095 4095
 4095 4095 4095 4095 4095 4095 4095 4095 4095 4095 4095 4095 4095 4095
 4095 4095 4095 4095 4095 4095 4095 4095 4095 4095 4095 4095 4095 4095
 4095 4095 4095 4095 4095 4095 4095 4095 4095 4095 4095 4095 4095 4095
 4095 4095 4095 4095 4095 4095 4095 4095 4095 4095 4095 4095 4095 4095
 4095 4095 4095 4095 4095 4095 4095 4095 4095 4095 4095 4095 4095 4095
 4095 4095 4095 4095 4095 4095 4095 4095 4095 4095 4095 4095 4095 4095
 4095 4095 4095 4095 4095 4095 4095 4095 4095 4095 4095 4095 4095 4095
 4095 4095 4095 4095 4095 4095 4095 4095 4095 4095 4095 4095 4095 4095
 4095 4095 4095 4095 4095 4095]",1
16,sub2_amostra0_0,[1968 1968 2004 ... 2147 1899 1903],0
17,sub2_amostra0_1,"[1885 1871 1829 1750 1727 1708 1706 1727 1805 1808 1861 1947 1858 1859
 1826 1762 1811 1791 1791 1833 1893 1939 2023 2037 1999 1984 1955 1936
 1927 1884 1808 1776 1760 1755 1775 1840 1986 1917 1923 1841 1807 1810
 1767 1710 1698 1754 1738 1776 1829 1873 1911 1971 1931 1910 1885 1861
 1842 1795 1712 1648 1709 1710 1732 1727 1724 1697 1698 1616 1578 1582
 1523 1475 1462 1520 1513 1561 1657 1654 1695 1753 1710 1687 1667 1614
 1619 1648 1709 1809 1839 1839 1862 1871 1856 1839 1840 1762 1711 1717
 1680 1627 1615 1666 1658 1709 1805 1879 1846 1854 1776 1757 1762 1706
 1712 1741 1801 1882 1919 1923 1946 1951 1936 1913 1919 1840 1802 1808
 1780 1713 1709 2064 2086 2032 2054 1973 1939 1945 1866 1883 1855 1803
 1810 1841 1904 1983 2032 2034 2065 2077 2064 2043 2059 1975 1839 1840
 1891 1973 2000 1971 2005 1982 1906 1871 1836 1837 1774 1776 1723 1731
 1762 1819 1905 1943 1945 1968 1972 1845 1808 1808 1809 1838 1917 1927
 1978 2065 2096 2064 2059 2079 2001 1970 1936 1899 1874 1882 1829 1840
 1869 1922 1991 1959 1929 1919 1877 1799 1771 1760 1758 1787 1865 1872
 1919 2006 2032 2045 2016 2010 1937 1904 1867 1827 1801 1809 1869 1904
 1923 1878 1859 1829 1807 1797 1754 1674 1649 1637 1633 1662 1743 1747
 1793 1878 1905 1870 1905 1873 1770 1707 1763 1754 1804 1855 1936 1965
 1975 1932 1906 1874 1857 1850 1808 1738 1712 1696 1697 1724 1806 1808
 1861 1943 1725 1744 1711 1615 1643 1722 1697 1745 1803 1843 1920 1930
 1885 1865 1837 1808 1801 1762 1680 1657 1664 1651 1680 1762 1981 1911
 1920 1841 1808 1809 1776 1765 1719 1782 1776 1825 1918 1958 1975 2000
 1952 1931 1904 1878 1877 1838 1763 1899 1939 1936 1957 1955 1938 1917
 1909 1843 1807 1761 1782 1728 1730 1802 1792 1843 1899 1952 1987 2030
 1984 1954 1595 1546 1553 1584 1647 1729 1776 1772 1791 1794 1773 1744
 1746 1667 1629 1632 1601 1590 1551 1611 1606 1664 1713 1786 1746 1751
 1712 1639 1664 1619 1637 1675 1734 1825 1872 1859 1876 1872 1854 1824
 1830 1746 1712 1715 1681 1625 1634 1971 1978 1921 1938 1863 1827 1833
 1806 1733 1744 1701 1715 1749 1813 1904 1951 1945 1968 1962 1945 1919
 1923 1843 1782 1755 1844 1933 1955 1911 1901 1915 1834 1795 1755 1719
 1731 1699 1664 1675 1707 1763 1847 1889 1888 1905 1903 1782 1760 1749
 1757 1786 1871 1887 1930 2012 2032 1995 1979 2000 1882 1889 1895 1813
 1813 1808 1762 1778 1812 1871 1902 1870 1841 1841 1803 1728 1711 1703
 1712 1744 1830 1847 1894 1983 2001 1968 1954 1969 1899 1861 1818 1821
 1742 1762 2064 2059 2102 2043 2022 1989 1966 1958 1919 1841 1811 1817
 1815 1849 1936 1941 1990 2082 2099 2059 2035 2047 1968 1872 1938 1940
 2000 2054 2095 2165 2171 2117 2090 2054 2022 2018 1974 1903 1879 1872
 1883 1919 2007 2019 2071 2155 1904 1910 1879 1823 1827 1898 1887 1951
 1995 2038 2076 2122 2067 2043 2007 2005 1979 1936 1860 1840 1834 1841
 1837 1966 2022 1998 1993 1905 1871 1873 1855 1797 1803 1876 1874 1927
 1978 2064 2147 2096 2031 2002 1971 1945 1941 1904 1824 1994 2031 2032
 2047 2038 2021 1983 1999 1916 1878 1883 1926 1811 1822 1893 1893 1949
 1995 2037 2064 2112 2059 2027 1866 1818 1835 1871 1928 2007 2057 2037
 2055 2042 2017 1990 1994 1911 1872 1877 1843 1787 1791 1856 1855 1906
 1953 1820 1777 1739 1705 1707 1699 1654 1677 1714 1776 1862 1905 1895
 1904 1897 1874 1846 1852 1773 1733 1744 1716 1662 1668 1954 1907 1893
 1903 1786 1791 1793 1756 1723 1769 1668 1693 1732 1792 1879 1918 1904
 1915 1905 1882 1851 1856 1774 1754 1759 1806 1887 1901 1846 1829 1838
 1755 1719 1717 1680 1607 1641 1600 1616 1661 1721 1807 1849 1837 1841
 1838 1623 1606 1606 1623 1663 1760 1774 1785 1905 1926 1875 1903 1875
 1808 1767 1776 1741 1710 1693 1653 1675 1712 1776 1917 1889 1859 1863
 1823 1732 1730 1725 1738 1774 1865 1872 1920 2000 2079 1968 1947 1959
 1878 1840 1804 1795 1746 1766 1923 1954 1997 1938 1917 1885 1857 1856
 1820 1746 1729 1728 1745 1783 1883 1888 1941 2022 2037 1989 1973 1986
 1963 1658 1739 1734 1801 1851 1949 1939 1939 1881 1852 1811 1776 1774
 1727 1651 1635 1631 1648 1692 1786 1793 1842 1921 1655 1664 1637 1583
 1587 1665 1669 1722 1775 1857 1840 1879 1813 1778 1742 1710 1708 1659
 1585 1568 1568 1589 1629 1730 1797 1767 1774 1685 1646 1659 1633 1584
 1636 1664 1671 1728 1823 1865 1841 1894 1828 1794 1759 1726 1721 1695
 1611 1887 1928 1911 1917 1906 1873 1845 1848 1762 1721 1735 1712 1671
 1678 1751 1772 1810 1861 1895 1959 1957 1893 1869 1824 1789 1815 1865
 1927 2014 2064 2038 2047 2033 2008 1973 1977 1899 1861 1863 1841 1792
 1803 1879 1885 1943 2035 1809 1765 1729 1693 1712 1702 1670 1698 1744
 1808 1897 1904 1919 1927 1915 1883 1855 1858 1775 1735 1751 1729 1683
 1699 2096 2045 2065 2027 1953 1915 1922 1830 1863 1851 1812 1837 1878
 1936 2026 2064 2045 2057 2037 2010 2000 1984 1902 1808 1811 1854 1922
 1933 1924 1857 1871 1789 1746 1711 1748 1687 1693 1650 1678 1736 1789
 1879 1921 1905 1911 1914 1847 1833 1827 1851 1891 1987 1997 2042 2116
 2154 2096 2047 2064 1981 1941 1904 1861 1883 1872 1832 1856 1902 1966
 2028 1998 1968 1967 1926 1857 1842 1842 1858 1892 1984 1989 2029 2107
 2112 2055 2071 2025 1948 1904 1863 1826 1793 1839 2106 2111 2111 2039
 2007 1975 1941 1939 1904 1830]",0
18,sub2_amostra0_2,"[1904 1695 1669 1698 1744 1803 1869 1902 1929 1981 1967 1920 1843 1845
 1757 1712 1719 1650 1649 1723 1705 1799 1813 1881 1855 1781 1738 1744
 1714 1690 1663 1691 1737 1794 1855 1887 1920 1965 1943 1904 1822 1827
 1712 1692 1701 1647 1629 1686 1943 1978 1952 1866 1867 1786 1746 1758
 1731 1713 1686 1718 1771 1829 1891 1928 1950 2000 1986 1945 1872 1876
 1780 1773 1872 1890 1937 1975 2033 2042 2000 1922 1923 1845 1808 1815
 1789 1771 1739 1769 1813 1871 1935 1968 1995 2044 1805 1839 1840 1867
 1867 1968 1977 2022 2057 2063 2044 2064 1979 1973 1889 1848 1856 1831
 1813 1786 1821 1870 1925 1983 1910 1866 1840 1783 1755 1791 1793 1808
 1822 1925 1937 1985 2017 2023 2064 2032 1943 1904 1861 1822 1830 1806
 1792 2045 2063 2038 1969 1931 1888 1841 1807 1757 1728 1753 1770 1802
 1795 1903 1909 1952 1975 1976 1964 1956 1888 1842 1835 1822 1914 1934
 1981 2064 2064 2059 1987 1951 1909 1870 1836 1789 1766 1807 1809 1830
 1840 1947 1958 2007 2034 1925 1881 1850 1835 1876 1882 1889 1937 1998
 2045 2128 2133 2122 2061 2019 1981 1888 1903 1850 1819 1854 1859 1889
 1883 1981 1938 1905 1866 1776 1731 1700 1680 1682 1744 1743 1839 1863
 1913 1997 2006 1991 1926 1887 1846 1806 1774 1730 1943 1979 1994 2035
 2015 1971 1893 1898 1808 1775 1793 1781 1735 1808 1808 1907 1927 1978
 2061 2070 2038 1981 1939 1894 1818 1876 1927 1981 2032 2064 2078 2117
 2096 2045 2009 1968 1883 1844 1815 1801 1808 1882 1882 1984 2009 2057
 1907 1861 1822 1829 1806 1793 1771 1807 1857 1923 1970 2000 2026 2066
 2032 1986 1909 1915 1827 1789 1755 1789 1744 1815 1936 1923 1936 1853
 1847 1779 1728 1744 1725 1715 1693 1733 1782 1842 1904 1935 1960 2001
 1979 1936 1855 1859 1773 1838 1936 1938 1977 1995 1999 1971 1983 1901
 1895 1813 1776 1792 1776 1775 1762 1792 1846 1904 1963 1989 2004 2055
 1810 1857 1869 1904 1906 2012 2016 2062 2077 2076 2058 2072 1984 1985
 1906 1873 1889 1874 1872 1851 1893 1947 2004 2067 1973 1929 1887 1845
 1825 1867 1874 1903 1910 2016 2021 2064 2082 2128 2109 2078 1990 1993
 1917 1863 1890 1879 1877 2169 2167 2154 2081 2043 2001 1951 1921 1872
 1851 1889 1901 1922 1933 2040 2046 2091 2112 2160 2099 2114 2027 1983
 1793 1797 1857 1915 1963 2037 2046 2026 1958 1918 1872 1808 1791 1748
 1728 1772 1781 1822 1825 1936 1941 1982 2055 1760 1721 1696 1687 1743
 1771 1775 1771 1874 1917 1984 1979 1955 1887 1847 1808 1765 1729 1686
 1665 1709 1718 1746 1755 1904 1871 1834 1745 1712 1728 1664 1714 1738
 1741 1840 1813 1888 1967 1970 1942 1873 1829 1787 1740 1698 1655 1633
 1969 1987 2032 2006 1969 1889 1904 1822 1792 1809 1808 1813 1807 1838
 1936 1951 1990 2067 2073 2047 1982 1943 1899 1792 1830 1883 1939 1987
 2013 2029 2064 2034 2000 1957 1917 1842 1787 1808 1747 1804 1831 1831
 1931 1941 1987 2043 2070 1756 1712 1750 1744 1726 1767 1824 1881 1936
 1963 1979 2021 1999 1957 1875 1881 1810 1748 1771 1710 1766 1793 1799
 2002 1953 1885 1889 1807 1771 1767 1776 1776 1762 1808 1869 1922 1970
 1991 1998 2029 2000 1955 1872 1872 1808 1744 2054 2065 2087 2101 2097
 2064 2045 1978 1978 1890 1854 1843 1851 1849 1837 1881 1897 1994 2039
 2067 2078 2112 2082 1803 1820 1855 1841 1968 1987 2001 2013 2002 2026
 1925 1900 1861 1808 1771 1759 1765 1763 1746 1793 1852 1905 1955 1981
 1682 1642 1617 1663 1680 1712 1725 1833 1858 1875 1883 1874 1847 1828
 1763 1764 1675 1639 1633 1642 1638 1616 1659 1929 1849 1802 1753 1712
 1671 1635 1616 1670 1684 1723 1782 1840 1866 1872 1891 1922 1847 1861
 1776 1776 1691 1653 1904 1917 1959 2003 2028 2000 1926 1910 1842 1801
 1762 1728 1712 1749 1788 1815 1828 1934 1962 1967 1978 1970 1990 1935
 1840 1807 1857 1888 1986 1994 2031 2075 2103 2071 1994 1954 1913 1869
 1837 1797 1782 1831 1909 1884 1899 1995 2023 1892 1855 1797 1739 1718
 1727 1737 1801 1834 1894 1947 1983 2011 2032 2001 1923 1881 1840 1791
 1765 1728 1718 1773 1983 2013 1982 1936 1903 1859 1798 1735 1765 1758
 1769 1774 1803 1903 1904 1939 1973 2000 1974 1903 1863 1821 1786 1748
 1797 1851 1901 1921 1943 1955 1926 1920 1806 1811 1755 1701 1726 1678
 1697 1755 1790 1892 1904 1939 1975 2006 1975 1920 1943 1955 1945 1997
 2045 2112 2159 2176 2177 2214 2182 2138 2061 2072 2003 1949 1936 1979
 1954 2002 2043 2146 2191 2131 2095 2046 2006 1999 2019 2023 2007 2063
 2119 2165 2209 2224 2226 2258 2224 2191 2105 2109 2053 1987 1970 2177
 2166 2175 2160 2181 2115 2059 2065 1974 1943 1937 1966 1971 1962 2007
 2066 2110 2146 2160 2157 2183 2147 2107 2016 1744 1751 1845 1872 1871
 1872 1862 1878 1813 1760 1719 1680 1650 1652 1678 1685 1680 1728 1787
 1841 1886 1899 1898 1659 1647 1707 1729 1776 1835 1958 1914 1905 1917
 1902 1874 1852 1794 1798 1787 1680 1677 1701 1690 1712 1761 1827 1896
 1855 1814 1776 1744 1715 1710 1759 1745 1833 1840 1938 1967 1955 1959
 1949 1967 1897 1841 1843 1757 1726 1715 1741 1950 1971 1995 1966 1883
 1843 1808 1765 1728 1706 1695 1755 1782 1825 1833 1932 1954 1938 1936
 1919 1881 1857 1798 1710 1765 1801 1895 1893 1922 1937 1964 1934 1853
 1817 1775 1735 1700 1680 1674 1728 1757 1806 1823 1915 1939 1929 1857
 1804 1744 1737 1787 1760 1822 1867 1968 1968 2003 2032 2064 2034 1962
 1930 1894 1858 1828 1808 1806]",0
19,sub2_amostra0_3,"[1767 1774 1798 1845 1956 2007 2047 2063 2087 2065 1990 1955 1910 1863
 1829 1789 1936 1936 1968 2023 1968 1951 1905 1907 1861 1798 1736 1712
 1698 1712 1744 1793 1904 1958 1993 2004 2032 2011 1936 1742 1738 1714
 1760 1815 1872 1925 1952 2011 1981 1969 1897 1904 1862 1808 1751 1728
 1719 1738 1765 1819 1925 1985 1920 1872 1829 1777 1790 1790 1773 1817
 1874 1933 1983 2005 2066 2033 1981 1947 1949 1905 1845 1776 1749 1739
 1749 1780 2020 1997 1957 1913 1919 1875 1840 1810 1803 1808 1792 1890
 1898 1953 2002 2019 2031 2014 1985 1946 1947 1901 1840 1812 1870 1904
 1903 1914 1905 1879 1842 1807 1811 1769 1723 1679 1684 1686 1669 1717
 1773 1882 1881 1906 1965 1897 1701 1744 1724 1719 1767 1870 1926 1955
 1962 1968 1956 1930 1895 1853 1867 1829 1790 1747 1759 1757 1744 1840
 1881 1978 1936 1929 1854 1818 1790 1826 1776 1803 1846 1945 2000 2025
 2019 2024 2006 1974 1936 1899 1906 1861 1827 1812 1801 2065 2064 2069
 2034 1954 1913 1870 1873 1791 1761 1796 1754 1776 1826 1930 1978 2007
 1995 1999 1984 1953 1909 1869 1807 1867 1978 2032 2067 2080 2064 2020
 1937 1891 1894 1799 1761 1728 1761 1719 1751 1808 1907 1966 1995 1986
 1985 1808 1744 1729 1738 1757 1811 1872 2062 2032 2065 2064 2081 2030
 1949 1904 1861 1821 1783 1756 1791 1787 1787 1840 1937 1954 1917 1915
 1873 1830 1761 1749 1754 1782 1823 1876 1979 2022 2043 2112 2047 2023
 1936 1894 1883 1807 1776 1743 1918 1905 1920 1965 1922 1851 1814 1822
 1777 1726 1669 1668 1679 1707 1758 1822 1929 1970 2000 2006 1993 1955
 1873 1666 1683 1683 1745 1841 1857 1902 1906 1946 1872 1840 1802 1801
 1761 1707 1649 1637 1648 1679 1731 1792 1904 1947 1710 1666 1631 1600
 1616 1638 1634 1693 1781 1842 1827 1837 1872 1826 1757 1718 1719 1678
 1625 1563 1553 1563 1594 1646 1871 1829 1787 1744 1749 1712 1678 1646
 1669 1695 1698 1808 1855 1919 1901 1905 1938 1861 1823 1782 1781 1739
 1680 1857 1906 1929 1908 1898 1869 1835 1793 1754 1767 1731 1725 1682
 1709 1736 1744 1797 1886 1939 1920 1919 1949 1903 1615 1665 1677 1684
 1744 1850 1895 1914 1890 1875 1849 1811 1774 1730 1741 1702 1675 1653
 1678 1717 1721 1831 1883 1812 1773 1698 1680 1651 1615 1686 1664 1710
 1772 1870 1913 1926 1899 1884 1854 1814 1773 1726 1735 1699 1676 1658
 1691 1997 1973 1964 1918 1830 1838 1775 1706 1681 1667 1727 1703 1751
 1810 1915 1968 1970 1942 1922 1891 1849 1803 1767 1831 1886 1981 2009
 2022 1991 1975 1933 1851 1852 1807 1769 1707 1691 1764 1747 1776 1867
 1968 2003 2019 1984 1961 1711 1662 1662 1687 1737 1796 1850 1946 1977
 1982 1953 1938 1895 1808 1817 1728 1691 1674 1665 1726 1712 1763 1819
 1922 1776 1740 1744 1708 1666 1622 1632 1668 1712 1767 1819 1910 1927
 1927 1894 1878 1835 1745 1753 1711 1679 1613 1606 1954 1966 1950 1969
 1885 1845 1809 1819 1783 1751 1712 1721 1757 1808 1867 1917 2000 2030
 2032 1997 1982 1939 1855 1713 1766 1776 1836 1886 1904 1914 1897 1920
 1838 1792 1750 1757 1724 1691 1648 1663 1691 1744 1803 1856 1943 1967
 1804 1776 1762 1755 1785 1841 1860 1906 2000 2029 1984 1969 1993 1906
 1867 1829 1804 1792 1751 1708 1716 1751 1799 1856 1832 1791 1751 1712
 1727 1710 1700 1712 1749 1794 1810 1867 1942 1974 1926 1904 1919 1829
 1785 1744 1750 1718 1690 1952 1978 1975 1925 1895 1857 1817 1769 1726
 1740 1726 1706 1707 1755 1798 1809 1858 1936 1967 1920 1898 1918 1872
 1653 1734 1772 1790 1846 1936 1964 1954 1903 1871 1834 1791 1746 1712
 1728 1708 1697 1703 1751 1808 1818 1922 1919 1792 1770 1742 1750 1694
 1710 1777 1813 1831 1882 1968 1986 1982 1923 1894 1858 1822 1783 1748
 1774 1757 1757 1764 1812 2018 1978 1951 1911 1825 1834 1802 1731 1728
 1738 1822 1824 1887 1938 2023 2037 2029 1971 1939 1901 1854 1814 1770
 1951 1991 2069 2069 2047 2001 1975 1934 1846 1854 1817 1747 1753 1763
 1852 1895 1917 2029 2063 2077 2066 2000 1965 1808 1776 1811 1859 1919
 1968 2006 2075 2029 2047 2003 1980 1936 1849 1814 1781 1765 1771 1783
 1871 1915 1927 1973 2060 1961 1925 1936 1911 1902 1873 1905 1954 2018
 2075 2115 2185 2186 2158 2123 2096 2039 1954 1915 1929 1862 1869 1882
 2062 1997 1963 1970 1883 1841 1802 1815 1797 1787 1763 1798 1850 1907
 1958 1990 2059 2054 2022 1974 1942 1882 1803 1793 1828 1856 1889 1914
 1957 1893 1850 1857 1763 1719 1680 1690 1676 1664 1635 1674 1741 1787
 1838 1872 1936 1934 1734 1728 1737 1766 1823 1883 1891 1931 1955 1938
 1933 1894 1904 1855 1779 1744 1762 1751 1747 1734 1777 1835 1894 1945
 1918 1875 1837 1804 1835 1836 1847 1872 1934 1984 1984 2013 2073 2020
 1999 1959 1968 1920 1838 1802 1813 1797 1793 2007 2006 1982 1904 1867
 1811 1786 1728 1722 1757 1757 1777 1813 1865 1937 1987 1983 1994 2033
 1966 1925 1887 1842 1805 1899 1905 1961 2000 2071 2065 2035 1961 1926
 1886 1840 1806 1777 1812 1817 1840 1872 1934 1984 1985 2019 2030 1809
 1782 1766 1761 1759 1812 1863 1922 1983 2000 2066 2061 2021 1943 1904
 1859 1818 1777 1753 1791 1789 1817 1854 1917 2106 2061 2027 1984 1898
 1868 1893 1856 1874 1914 2021 2070 2082 2117 2179 2170 2143 2067 2026
 1982 1936 1899 1871 2161 2183 2234 2209 2176 2130 2096 2043 1955 1924
 1961 1925 1935 1971 2028 2129 2131 2169 2223 2215 2181 2103 2065 1931
 1920 1928 2033 2087 2118 2135]",0
20,sub2_amostra1_0,"[2779 2599 2351 2091 1872 1774 1698 1691 1715 1696 2978 2882 2832 2681
 2629 2576 2590 2517 2559 2497 2407 2325 2112 1870 1589 1349 1104  855
  704  612  560  528  536  491  462 1357 1367 1434 1511 1697 1766 1924
 1967 2039 2059 1994 2021 1934 1865 1616 1357 1071  786  461  100    0
    0    0    0    0  195  640  485 1136 1905 2753 3558 4012 3943 3216
 2525 1653  827  199    0    0    0  384  955 1654 2326 2896 3504 3969
 4058 3751 3114 2483 4095 4095 4095 3843 3092 2526 1843 1249  768  496
  448  642  921 1367 1888 2241 2512 2644 2606 2327 1889 1453 1040  713
  483 2254 2209 2143 2069 2023 1915 1783 1616 1603 1581 1739 1777 1941
 2022 2067 1926 1840 1687 1556 1424 1327 1311 1358 2450 2681 2896 3007
 3024 2841 2492 2042 1600 1139  813  658  843 1309 1972 2736 3673 4095
 4095 4095 4095 3852 3308 2659 1963 2019 1905 1821 1764 1790 1862 1931
 2026 2000 1787 1405  912  397    0    0    0    0    0    0    0    0
  417 1057 1806 2500 3168 3612 3723 2735 2670 2507 2239 1951 1631 1323
 1183 1186 1329 1584 1903 2164 2367 2410 2353 2158 1794 1283  913  524
  231   80  100 1863 1801 1802 1741 1625 1456 1245  967  747  500  276
  189  187  272  451  752 1081 1456 1807 2192 2512 2759 2710 2505 2193
 1226 1303 1431 1392 1315 1185 1023  954 1001 1170 1488 1958 2490 3029
 3773 4095 4095 4095 3735 3221 2902 2701 2685 2812 1222 1742 2345 2726
 2955 2783 2374 1875 1356  754  245    0    0    0    0  129  505 1104
 1805 2548 3376 4095 4095 4095 4095 4095  373  339  290  198  231  213
  358  477  685  917 1216 1367 1712 2031 2349 2637 2800 2830 2858 2865
 2867 2859 2864 2960 3017 3069   80    0    0    0  113  659 1401 2069
 2613 2937 2959 2768 2427 1890 1377  910  573  340  259  429  773 1242
 1724 2178 2422 2576 2641   30    0    0    0    0    0  334  843 1551
 2157 2573 2883 2943 2759 2519 2252 2023 1829 1692 1713 1807 1923 2005
 1962 1792 1621 1355 1895 2402 2978 3424 3914 3952 3242 2487 1683  734
    0    0    0    0    0    0    0  150  370  643  875 1077 1292 1579
 1779 2045 2371 2685 3001  533  565  707  898 1249 1517 1835 2126 2375
 2495 2458 2418 2346 2265 2227 2203 2209 2336 2495 2662 2791 2896 2827
 2702 1361 1425 1629 1819 2003 2126 2238 2145 2012 1893 1693 1631 1613
 1637 1824 2093 2379 2658 2832 2837 2722 2419 2021 2501 2530 2428 2224
 2017 1716 1490 1348 1173  977  912  999 1099 1328 1616 1920 2255 2630
 2910 3248 3549 3794 3982 3903 1313 1951 2559 3088 3702 4095 4095 3886
 3458 2941 2491 2090 1751 1664 1616 1731 1955 2109 2235 2304 2158 1998
 1743 2419 2706 2835 2786 2619 2295 1913 1478 1083  865  816  944 1211
 1616 2004 2352 2609 2672 2735 2677 2704 2769 2951 3042  737  635  624
  686  790  983 1173 1535 2022 2638 3430 4095 4095 4095 4095 4053 3395
 2748 2178 1702 1264  944  746  654  592  821 1104 1433 1904 2352 2740
 3216 3495 3696 3483 3171 2800 2399 1991 1476  907  432   15    0    0
    0  121  577 1308 2237 3152 4095 4095 4095 3422 2556 1717  864    0
    0    0    0    0    0  144  686 1451 2304 2942 3710 4016 4071 3600
 3038 2541 2038 1607 1296 1140 1296 1293 1290 1074  851  554  386  371
  524  815 1250 1616 2000 2358 2727 3065 3422 3862 4095 4095 4095 4095
 3947 3263 2643 4095 4095 4095 4095 4095 4095 3455 2705 2134 1569 1014
  675  416  272  384  688 1178 1707 2178 2554 2755 2736 2512 2176  975
  894  882 1088 1385 1798 2400 3070 3921 4095 4095 4095 4034 3302 2734
 2161 1641 1168  898  843 1008 1281 1625 2026 2479 2257 2585 2803 2887
 2790 2539 2147 1683 1204  718  371   55    0    0    0    0   16  187
  417  855 1298 1762 2331 2902 3531 4095 4095 4095 4095 4095 3626 2951
 2418 2000 1687 1604 1774 2081 2579 3199 4095 4095 4095 4095 4095 4095
 3887 2971 2170 1264 1265  816  458  205   73    0    0    0    0   27
  240  625 1085 1687 2384 3057 3838 4095 4095 4095 4095 4095 4095 3964
 3696 3379 3079 2734 3001 3131 3231 3261 3184 2892 2496 2193 1888 1627
 1398 1232 1100  951  803  599  463  268  145  105  176  392  750 1196
 1715 2971 2520 2112 1833 1579 1435 1421 1513 1603 1671 1717 1753 1751
 1721 1660 1580 1575 1558 1570 1578 1693 1890 2175 2197 2043 1798 1558
 1283 1078  832  626  560  611  733  990 1374 1793 2254 2717 3215 3775
 4095 4095 4095 4001 3518 2994 2537 3454 3765 4046 4095 4095 4049 3917
 3831 3853 3915 3991 4038 3999 3957 3892 3692 3424 3169 2963 2741 2493
 2215 1923 1890 1766 1728 1678 1645 1600 1626 1662 1659 1717 1826 2000
 2199 2530 3022 3581 4095 4095 4095 4095 4095 4095 4095 3711 3356 3102
 2860 2689 2635 2774 3246 4095 4095 4095 4095 4095 4095 4095 4095 4095
 4095 4095 4095 3403 2639 1969 1388 4019 3994 3974 3843 3597 3280 2983
 2697 2405 2127 1877 1734 1614 1582 1649 1809 2047 2366 2677 3079 3610
 4095 4095 2267 2503 2801 3202 3755 4095 4095 4095 4095 4006 3493 2971
 2491 2033 1637 1353 1278 1295 1454 1703 2068 2455 2800  944 1375 1874
 2541 3232 4095 4095 4095 4095 4048 3469 2865 2340 1770 1239  775  485
  352  371  552  907 1329 1837 2373 2911 1494 1570 1748 1893 2215 2687
 3232 4095 4095 4095 4095 4095 4095 4095 4095 4095 4095 4095 3478 2806
 2190 1581 1088 4095 4095 4095 4095 4095 4095 4095 4095 3913 3423 2915
 2451 2033 1550 1157  880  644]",1
21,sub2_amostra1_1,"[2907 2688 2400 2178 2020 1798 1650 1521 1424 1411 1411 1428 1552 1706
 1901 2032 2118 2129 2150 2137 2105 2059 2031 3234 3458 3504 3561 3664
 3483 3270 3183 3014 2787 2601 2385 2238 2059 1907 1751 1687 1653 1648
 1601 1477 1294 1146 1882 2079 2320 2511 2626 2634 2620 2467 2343 2256
 2106 1925 1808 1767 1668 1649 1669 1695 1735 1744 1631 1522 1382 2128
 2038 1926 1810 1659 1489 1326 1274 1315 1443 1665 1967 2237 2510 2786
 2902 2859 2801 2605 2288 1994 1699 1485 1520 1663 1716 1870 2015 2096
 2210 2300 2368 2406 2384 2299 2256 2241 2278 2352 2445 2371 2230 2013
 1675 1278 1008  690 1255 1503 1744 1965 2262 2544 2795 2958 3086 2992
 2918 2803 2673 2507 2288 2033 1866 1744 1669 1631 1577 1493 1442 2291
 1948 1591 1271  972  864  752  698  774  816 1010 1168 1286 1389 1419
 1393 1369 1360 1358 1369 1507 1717 1946 2173 2321 2290 2126 1973 1826
 1734 1606 1523 1513 1707 1917 2183 2493 2815 2978 3152 3152 3104 2990
 2831 2672 2454 2199 1894  778  708  614  567  531  522  544  592  707
  919 1138 1394 1625 1942 2165 2376 2501 2514 2514 2470 2373 2143 1921
 1701 1518 1853 1601 1360 1133  899  694  613  613  691  848 1078 1277
 1421 1590 1798 1904 1926 1940 1964 1846 1755 1686 1520 1474 1411 1282
 1236 1295 1271 1296 1343 1407 1456 1488 1582 1671 1744 1808 1879 1889
 1828 1804 1840 1808 1902 1915 2035 2070 1575 1678 1710 1837 1856 1981
 2060 2137 2169 2226 2343 2457 2530 2559 2609 2635 2655 2669 2704 2774
 2756 2766 2789  462  336  207  203  291  439  598  882 1161 1407 1766
 2067 2289 2532 2737 2890 2904 2790 2641 2444 2234 2035 1855 1703 1657
 2750 2571 2235 1841 1386 1046  683  388  266  129  173  204  298  463
  655  843 1055 1253 1408 1500 1611 1691 1748 1798 1827 1863 1680 1595
 1488 1458 1491 1474 1425 1435 1440 1369 1351 1355 1408 1463 1502 1498
 1531 1600 1680 1745 1789 1901 2035 1018 1039 1138 1291 1463 1676 1799
 1810 1836 1879 1831 1824 1826 1856 1791 1758 1733 1727 1664 1648 1495
 1346 1238 1571 1552 1584 1657 1747 1834 2021 2246 2467 2673 2878 2959
 2919 2907 2933 2854 2820 2749 2688 2469 2245 1979 1728 2131 2153 2213
 2212 2226 2214 2277 2370 2491 2589 2634 2713 2775 2804 2805 2815 2754
 2645 2622 2674 2653 2671 2674 2663 4095 4095 4095 4095 4095 4095 4095
 4095 4095 4095 4095 4095 4095 4095 4095 4095 4095 4095 4095 4095 4095
 3806 3475 2558 2500 2502 2479 2375 2325 2286 2160 2123 1984 1956 1886
 1834 1745 1712 1694 1688 1674 1648 1719 1842 1998 2169 1507 1601 1680
 1791 1841 1846 1910 2023 2057 2120 2190 2223 2172 2144 2093 2006 1962
 1847 1669 1529 1419 1343 1264 1188 1626 1518 1376 1314 1280 1268 1311
 1385 1461 1520 1654 1839 1922 2064 2109 2082 1980 1877 1814 1683 1552
 1518 1415 1728 1879 1947 2054 2154 2266 2333 2355 2433 2485 2506 2480
 2480 2422 2359 2275 2288 2209 2167 2142 2066 1902 1742 1715 1600 1543
 1509 1517 1552 1643 1637 1671 1707 1743 1715 1702 1625 1587 1530 1466
 1443 1372 1262 1217 1247 1200 1589 1551 1558 1579 1616 1568 1571 1630
 1596 1614 1635 1557 1506 1461 1424 1345 1232 1186 1161 1152 1161 1236
 1296 1325 1761 1625 1552 1542 1431 1411 1280 1199 1029  933  941  941
 1030 1144 1238 1392 1557 1728 1843 1892 1959 1995 1995 1959 1786 1777
 1779 1777 1824 1807 1789 1771 1763 1751 1696 1675 1688 1583 1499 1451
 1393 1322 1211 1143 1133 1165 1181 1973 2012 2027 2016 2078 2146 2212
 2260 2288 2334 2295 2226 2129 1984 1913 1759 1671 1665 1631 1569 1606
 1584 1600 1597 1579 1577 1552 1605 1676 1773 1826 1840 1914 1974 2027
 2045 2015 2029 1949 1866 1789 1723 1674 1600 1649 1677 2554 2664 2698
 2678 2688 2704 2667 2522 2407 2298 2197 2128 2038 1941 1920 1935 1980
 2042 2128 2224 2266 2288 2270 2223 3034 3055 2994 2818 2656 2502 2237
 2000 1806 1549 1346 1181 1070 1019 1066 1114 1161 1276 1391 1495 1586
 1652 1749 2147 2149 2102 2064 2014 1968 1904 1779 1750 1683 1593 1581
 1627 1622 1722 1734 1809 1899 2011 2094 2123 2177 2275 2201 2096 2034
 1981 1920 1862 1869 1846 1869 1913 1989 2079 2119 2203 2282 2384 2493
 2653 2726 2815 2851 2871 2864 2889 2517 2535 2542 2464 2307 2169 2000
 1837 1696 1606 1616 1629 1687 1774 1870 1968 2021 2164 2202 2327 2329
 2410 2379 2135 2105 2015 1984 1946 1907 1865 1815 1798 1697 1663 1647
 1648 1670 1722 1851 1965 2099 2238 2367 2475 2510 2573 2001 2005 2130
 2166 2253 2339 2449 2466 2550 2510 2464 2400 2326 2195 2015 1906 1811
 1741 1689 1677 1747 1803 1888 1984 3063 3011 2923 2789 2625 2503 2415
 2374 2365 2419 2465 2506 2480 2479 2448 2425 2381 2271 2239 2230 2241
 2285 2341 2305 2410 2471 2533 2505 2485 2325 2225 2109 1957 1872 1859
 1782 1790 1862 1871 1974 1983 2045 2128 2247 2351 2419 1435 1583 1696
 1861 2011 2135 2229 2277 2339 2295 2246 2147 2031 1914 1759 1721 1602
 1559 1550 1585 1597 1595 1549 1929 1842 1714 1638 1586 1567 1545 1473
 1470 1489 1518 1535 1551 1584 1535 1470 1393 1321 1269 1199 1204 1287
 1354 1360 1521 1569 1486 1486 1441 1386 1277 1234 1232 1286 1334 1357
 1422 1510 1577 1616 1643 1697 1692 1675 1648 1610 1521 1550 1482 1414
 1291 1274 1136 1105 1072 1089 1086 1070 1012 1023 1051 1125 1149 1111
 1111 1102 1080 1057 1021 1038    0    0    0    0    0    0    0    0
    0    0    0    0    0    0]",1
22,sub2_amostra1_2,"[1981 1948 1977 1952 1903 1885 1890 1961 2000 2043 2079 2149 2256 2292
 2301 2263 2268 2234 2209 2192 2189 2146  483  561  645  832 1103 1301
 1579 1712 1883 1905 1997 2000 2093 2217 2400 2518 2662 2810 2858 2860
 2838 2887 2943 2975 4095 4095 4095 4095 4095 4095 4095 4095 4095 4095
 4095 3931 3672 3247 2834 2542 2163 1869 1669 1458 1355 1358 1387 2181
 2210 2144 2032 1883 1792 1687 1534 1312 1075  731  368    7    0    0
    0    0    0    0  126  496  853 1309 1813 2207 2577 2909 3109  595
  316  153  145  287  654 1136 1701 2276 2834 3295 3515 3519 3302 2954
 2482 2075 1546 1113  737  537  414  379  573  783 1068 2362 1827 1374
 1021  679  385  144   37   11   45  128  262  378  448  594  782  870
  976 1094 1286 1419 1602 1806 2029 2352 2671 3031 1787 1821 1920 1967
 2063 2063 2025 2000 2112 2307 2553 2773 3129 3237 3385 3174 2925 2556
 2115 1581 1056  468    0    0 2027 1770 1465 1234 1049  950  848  875
 1039 1232 1471 1719 2017 2309 2572 2785 2973 3087 3109 3173 3283 3291
 3358 3453 3219 3407 3510 3659 3794 3711 3654 3605 3662 3507 3420 3323
 3300 3239 3197 3152 3210 3317 3450 3626 3825 4095 4095 2898 2850 2855
 2927 3059 3247 3334 3198 2974 2666 2304 1921 1563 1273 1072  937  949
 1045 1231 1470 1809 2178 2530 2864  674  932 1190 1457 1683 1889 2031
 2178 2213 2223 2141 2064 1968 1920 1893 1894 1904 2003 2063 2146 2234
 2206 2105 1911 2219 2394 2441 2433 2327 2126 1855 1570 1194  921  782
  677  587  606  737  811  992 1245 1405 1653 1819 1905 1985 1991 2003
 1591 1622 1713 1763 1821 1839 1870 1865 1824 1755 1739 1838 1926 2047
 2205 2439 2739 3081 3706 4095 4095 4079 3473 4048 4014 3657 3182 2702
 2242 1825 1535 1300 1168 1115 1187 1301 1395 1523 1584 1648 1613 1514
 1360 1159  966  854 2192 1885 1535 1345 1170 1043 1118 1186 1423 1572
 1758 1921 2115 2249 2388 2435 2517 2542 2476 2333 2193 2015 1874 1750
 1285 1293 1361 1438 1617 1792 2017 2302 2674 3059 3792 4095 4095 4095
 4095 4095 4095 3609 2896 2283 1650 1069  577  243   73   30  145  332
  592  842 1183 1498 1808 2128 2347 2463 2602 2576 2636 2567 2423 2274
 2037 1770 1413 1049  684  400  178    0    0  177  447  814 1311 1801
 2262 2621 2928 3104 3127 3006 2858 2549 2217 1855 1451 1050  713  366
  165  117  144  278  469  717  661  621  649  694  750  753  791  800
  764  740  711  805  850  985 1207 1393 1616 1846 2069 2412 2690 2866
 2976 2959 2720 2342 2512 2531 2517 2429 2352 2256 2163 2090 2038 1895
 1780 1715 1587 1402 1238 1146  979  940  939 1006 1138 1409 1605 1793
 1738 1778 1871 2017 2229 2372 2467 2462 2416 2286 2095 1875 1731 1571
 1439 1408 1363 1456 1495 1687 1805 2006 2218 1898 1888 1834 1933 1974
 2108 2270 2405 2610 2805 2925 2973 2899 2802 2667 2509 2343 2208 2001
 1809 1652 1517 1565 2442 2541 2549 2649 2645 2768 2814 2978 3110 3204
 3172 3134 3035 2969 2817 2656 2475 2375 2314 2279 2259 2295 2293 2712
 3105 3638 4095 4095 4095 4095 4095 4095 4095 4095 4095 4095 4095 4095
 4095 4095 4095 4095 4095 4095 4095 4095 4095 4095 4095 4095 4095 4095
 4095 4095 4095 4095 4095 4095 4095 4095 4095 4095 4095 4095 4095 4095
 4095 4095 4095 4095 4095 4095 4095 4095 4095 4095 4095 4095 4095 4095
 4095 4095 4095 4095 4095 4095 4095 4095 4095 4095 4095 4095 4095 4095
 4095 4095 4095 4095 4095 4095 4095 4095 4095 4095 4095 4095 4095 4095
 4095 4095 4095 4095 4095 4095 4095 4095 4095 4095 4095 4095 4095 4095
 4095 4095 4095 4095 4095 4095 4095 4095 4062 4095 4095 4095 4095 4095
 4095 4095 4095 4095 4095 4095 4095 4095 4095 4095 4095 4095 4095 4095
 4095 4095 4095 4095 4095 4095 4095 4095 4095 4095 4095 4095 4095 4095
 4095 4095 4095 4095 4095 4095 4095 4095 4095 4095 4095 4095 4095 4095
 4095 4095 4011 3863 3797 3644 3498 3325  625  461  304  219  160  128
  123  183  215  246  325  350  462  470  538  667  774  944 1090 1296
 1554 1739 1853 1999 2161 2286 2335  541  535  535  539  624  752  901
 1062 1264 1408 1551 1672 1718 1799 1690 1574 1262  985  653  268    0
    0    0    0    0    0    0    0    0    0    0    0    0    0    0
    0    0    0    0    0    0    0   35    0    0    0    0    0    0
    0    0    0    0    0    0    0    0    0    0    0    0    0    0
    0    0    0    0    0    0    0    0    0    0    0    0    0    0
    0    0    0    0    0    0    0    0    0    0    0    0    0    0
    0    0    0    0    0    0    0    0    0    0    0    0    0    0
    0    0    0    0    0    0    0    0    0    0    0    0    0    0
    0    0    0    0    0    0    0    0    0    0    0    0    0    0
    0    0    0    0    0    0    0    0    0    0    0    0    0    0
    0    0    0    0    0    0    0    0    0    0    0    0    0    0
    0    0    0    0    0    0    0    0    0    0    0    0    0    0
    0    0    0    0    0    0    0    0    0    0    0    0    0    0
    0    0    0    0    0    0    0    0    0    0    0    0    0    0
    0    0    0    0    0    0    0    0    0   32   85  109  176  257
  321  378  482  464  501  582  557  595  526  533  429  375  331  343
  262  280  201  176  148  165  149  627  710  814  909  960 1055 1125
 1168 1183 1232 1214 1190 1114]",1
23,sub2_amostra1_3,"[1710 1808 1810 1898 1862 1914 1855 1815 1830 1746 1708 1679 1691 1675
 1623 1642 1679 1730 1783 1881 1792 1757 1776 1744 1724 1717 1680 1762
 1764 1854 1863 1894 1910 1961 1889 1901 1861 1769 1734 1707 1722 1710
 1658 1950 1984 1919 1891 1856 1818 1777 1793 1763 1744 1742 1711 1794
 1798 1903 1953 1936 1955 2000 1934 1943 1854 1813 1776 1837 1843 1897
 1939 2001 2001 1936 1905 1870 1833 1794 1808 1776 1763 1763 1734 1826
 1831 1933 1937 2023 1985 2032 1710 1690 1734 1709 1779 1790 1835 1879
 1922 1984 1978 1907 1875 1840 1790 1759 1774 1723 1725 1726 1695 1783
 1788 1877 1923 1839 1807 1761 1736 1712 1765 1740 1818 1818 1870 1920
 1958 2019 2011 1946 1915 1877 1842 1809 1829 1808 2098 2111 2256 2382
 2475 2695 2822 3067 3231 3461 3780 3929 3967 3846 3822 3532 3289 3042
 2835 2576 2254 1974 1712 1506 2015 1982 2029 2145 2352 2545 2784 3041
 3236 3452 3507 3401 3135 2907 2617 2422 2230 2017 1901 1673 1495 1355
 1259 2635 2475 2299 2029 1695 1363 1066  786  557  402  266  214  256
  367  661  979 1372 1743 2117 2322 2559 2707 2821 3077 3287 1557 1068
  660  244    0    0    0    0    0    0    0   17  241  436  662  898
 1047 1121 1217 1345 1374 1509 1757 2196 2662 3396 4095 4095 4095 3136
 2928 2739 2515 2306 2030 1717 1408 1113  848  647  555  482  427  462
  582  631  703  819  973  996 1072  975  927  764  704 1328  667  176
    0    0    0    0    0    0    0    0    4   64  176  129   58  176
  301  646 1070 1602 2174 2633 2963 3125 3168 2880 2602 2177 1741 1408
 2480 2591 2704 2827 2833 2726 2559 2347 2078 1775 1471 1158  795  532
  358  134    0    0    0    0    0  105  400  845 1289 1693 2124 2506
 1855 1903 1967 2066 2126 2143 2160 2183 2198 2184 2160 2098 1985 1863
 1679 1584 1453 1440 1425 1423 1398 1402 1301  881  719  534  465  474
  549  688  922 1296 1697 2108 2480 2805 3023 3088 3050 2891 2677 2409
 2203 2047 1887 1850 1827 1792 1486 1341 1104  935  807  781  733  769
  773  880 1070 1355 1653 1975 2352 2841 3455 4095 4095 4095 4095 4095
 4083 3659 3201 2382 2441 2474 2623 2666 2736 2803 2704 2578 2443 2160
 1892 1549 1232  979  723  498  343  272  256  293  384  432  507  627
 1776 1815 1837 1905 1883 1819 1737 1543 1295 1104  945  883  870  906
 1022 1208 1463 1713 1971 2224 2477 2714 2907 3088 2027 1721 1429 1195
 1008  909  835  906  957 1075 1203 1342 1501 1635 1716 1721 1745 1781
 1737 1715 1742 1728 1711 1728 1943 2029 2128 2244 2317 2337 2299 2224
 2170 2015 1838 1633 1417 1216 1006  883  844  851  849  926 1037 1157
 1294 1417 2650 2795 2935 3059 3023 2839 2582 2294 1990 1713 1498 1323
 1264 1366 1489 1684 1920 2255 2459 2668 2841 2814 2745 2611 1757 1783
 1840 1771 1711 1616 1500 1435 1338 1238 1165 1147 1187 1254 1296 1409
 1469 1579 1600 1552 1431 1373 1212 3027 3088 2961 2842 2690 2512 2282
 2042 1763 1590 1389 1262 1205 1142 1083 1015  967  912  862  849  826
  853  960 1057 1169  885 1023 1282 1574 1868 2269 2759 3329 3943 4095
 4095 4095 3671 3089 2597 2082 1588 1170  890  720  656  691  854 1018
 2259 2405 2637 2809 2963 3133 3164 2985 2742 2395 2031 1682 1354 1088
  883  763  706  750  791  859  967 1149 1351 1585 1811 1040 1249 1475
 1748 1936 2112 2263 2361 2490 2480 2480 2442 2373 2269 2192 2082 1937
 1879 1841 1826 1856 1840 1821 1508 1696 1936 2168 2427 2670 2858 2992
 3126 3120 3024 2858 2590 2324 1947 1667 1315 1058  972 1008 1068 1134
 1315 1443  594  601  726  935 1251 1546 1805 1989 2141 2208 2199 2169
 2162 2143 2128 2081 2138 2226 2447 2690 2971 3275 3713 3941 1003  979
 1060 1159 1328 1409 1468 1584 1760 1907 2066 2209 2383 2546 2704 2810
 2864 2928 2928 2918 2881 2858 2816  955 1148 1274 1462 1713 1859 2038
 2229 2256 2229 2145 1918 1709 1575 1454 1399 1414 1511 1648 1724 1797
 1866 1863 1840 2687 2587 2342 2145 1899 1758 1615 1476 1518 1602 1650
 1744 1808 1841 1792 1691 1585 1376 1173  846  643  470  337  271 2321
 2618 2970 3399 3988 4095 4095 4095 4095 3821 3088 2512 1809 1136  534
    0    0    0    0    0    0    0  102  336  665  977 1264 1486 1584
 1663 1702 1694 1595 1378 1165  969  736  668  660  739  852 1037 1234
 1422 1575 1733 1792 1840 1861 1762 1567 1266  970  291  477  769 1122
 1499 1877 2214 2398 2384 2268 2075 1695 1328 1031  684  461  250  101
   21    0    0    0    0    0  112  262  404  591  759  334  306  294
  301  304  368  378  396  373  432  469  548  617  781  866 1031 1158
 1229 1392 1439 1557 1610 1706 1726 1702 1601    0    0    0    0   57
  193  341  489  683  798  874  906  951  976  946 1009  988  993 1036
 1074 1123 1201 1197 1212 1247 1213 1151 1051  985   61   82  215  421
  657  912 1173 1355 1460 1449 1421 1369 1247 1135 1051  977 1041 1046
 1158 1152 1195 1229 1265 1347 1371  607  697  776  881 1008 1211 1447
 1709 1967 2210 2448 2557 2573 2480 2347 2151 1962 1712 1583 1366 1290
 1143 1161 1168 2537 2429 2256 2103 1956 1801 1575 1313 1015  771  569
  416  352  393  431  607  880 1111 1323 1530 1730 1761 1822 1806 1834
 1364 1515 1623 1805 2032 2142 2262 2352 2451 2495 2527 2554 2618 2702
 2806 2939 3120 3419 3745 4095 4095 4095 4095 2555 2557 2505 2416 2258
 2147 2001 1882 1754 1617 1465]",1
24,sub3_amostra0_0,"[1845 1844 1854 1857 1850 1853 1855 1846 1846 1843 1850 1843 1843 1841
 1845 1840 1893 1845 1834 1839 1838 1834 1834 1835 1831 1826 1833 1830
 1837 1840 1850 1852 1853 1850 1846 1843 1841 1843 1840 1843 1853 1854
 1851 1846 1851 1845 1846 1845 1835 1836 1840 1837 1836 1838 1835 1839
 1841 1849 1851 1849 1842 1843 1842 1844 1847 1841 1843 1855 1858 1862
 1861 1855 1883 1856 1855 1919 1852 1853 1854 1825 1850 1849 1855 1855
 1859 1867 1840 1842 1850 1844 1836 1839 1840 1839 1843 1843 1856 1858
 1861 1855 1857 1853 1853 1853 1847 1847 1854 1843 1840 1857 1857 1855
 1854 1856 1845 1847 1855 1852 1845 1843 1840 1840 1851 1856 1857 1862
 1861 1861 1858 1860 1863 1870 1845 1851 1855 1851 1856 1859 1857 1851
 1856 1846 1845 1840 1840 1842 1841 1840 1841 1844 1846 1855 1862 1867
 1849 1826 1859 1855 1869 1856 1871 1869 1866 1873 1873 1872 1872 1863
 1868 1860 1859 1866 1856 1854 1849 1850 1854 1856 1862 1856 1855 1855
 1857 1857 1855 1843 1856 1849 1856 1859 1857 1869 1866 1860 1856 1858
 1850 1840 1846 1852 1847 1842 1866 1865 1861 1857 1858 1854 1851 1850
 1851 1854 1850 1841 1856 1846 1855 1857 1853 1858 1860 1856 1853 1851
 1856 1854 1856 1856 1850 1851 1857 1855 1859 1850 1854 1851 1841 1842
 1842 1845 1846 1840 1840 1840 1853 1854 1862 1842 1859 1840 1840 1843
 1835 1830 1838 1835 1840 1840 1852 1855 1849 1847 1849 1845 1845 1841
 1841 1795 1842 1836 1840 1837 1839 1839 1830 1839 1836 1827 1834 1838
 1830 1834 1837 1839 1839 1840 1853 1851 1847 1841 1842 1841 1838 1838
 1835 1855 1856 1860 1856 1847 1854 1843 1854 1831 1843 1840 1840 1830
 1840 1839 1846 1846 1851 1863 1866 1859 1853 1852 1847 1834 1838 1835
 1840 1843 1850 1849 1845 1845 1841 1839 1838 1834 1839 1828 1829 1830
 1827 1838 1837 1839 1808 1851 1845 1843 1849 1844 1840 1817 1877 1842
 1846 1897 1856 1853 1856 1846 1851 1871 1855 1851 1847 1841 1841 1797
 1840 1858 1850 1858 1860 1849 1842 1841 1847 1845 1843 1840 1840 1841
 1847 1853 1865 1863 1863 1866 1855 1856 1855 1856 1844 1853 1859 1858
 1856 1861 1854 1855 1859 1843 1840 1840 1851 1847 1845 1842 1853 1851
 1855 1863 1865 1859 1862 1858 1856 1844 1849 1852 1859 1857 1863 1844
 1866 1857 1857 1857 1854 1854 1852 1853 1849 1845 1844 1850 1849 1862
 1858 1849 1852 1846 1846 1851 1867 1841 1849 1843 1857 1865 1856 1859
 1863 1856 1854 1855 1855 1850 1849 1852 1851 1849 1867 1861 1868 1863
 1855 1856 1850 1844 1851 1851 1850 1841 1841 1846 1857 1895 1862 1858
 1863 1857 1854 1853 1855 1845 1859 1858 1858 1861 1872 1867 1862 1853
 1853 1850 1845 1847 1851 1851 1847 1840 1855 1843 1860 1859 1856 1861
 1869 1854 1853 1855 1846 1853 1856 1887 1831 1862 1868 1870 1863 1859
 1857 1856 1853 1854 1855 1830 1851 1851 1855 1856 1861 1824 1856 1856
 1857 1859 1857 1849 1855 1854 1863 1857 1860 1862 1869 1865 1861 1853
 1849 1842 1848 1846 1858 1845 1849 1855 1856 1858 1850 1843 1838 1845
 1856 1898 1840 1840 1833 1838 1838 1842 1798 1846 1854 1850 1850 1844
 1839 1849 1841 1873 1847 1842 1849 1808 1853 1847 1840 1841 1840 1840
 1835 1837 1840 1849 1840 1835 1839 1845 1842 1843 1843 1840 1836 1840
 1841 1841 1801 1840 1843 1844 1847 1852 1851 1854 1843 1851 1840 1842
 1847 1839 1842 1845 1841 1857 1858 1851 1850 1843 1845 1839 1840 1843
 1844 1843 1843 1845 1845 1848 1850 1856 1861 1858 1850 1851 1840 1843
 1840 1837 1843 1855 1843 1849 1855 1840 1842 1840 1841 1837 1833 1840
 1835 1837 1829 1831 1833 1838 1840 1845 1845 1845 1834 1831 1825 1835
 1833 1840 1844 1840 1840 1840 1831 1831 1826 1829 1827 1825 1833 1837
 1829 1829 1834 1833 1837 1829 1827 1823 1823 1831 1826 1831 1825 1826
 1826 1840 1832 1842 1843 1845 1834 1833 1827 1831 1823 1825 1828 1831
 1840 1847 1845 1842 1840 1829 1827 1827 1830 1835 1835 1831 1831 1837
 1837 1840 1843 1840 1847 1844 1838 1831 1830 1840 1840 1843 1845 1843
 1843 1855 1855 1855 1840 1842 1841 1838 1838 1845 1842 1845 1840 1842
 1842 1851 1862 1850 1853 1857 1851 1853 1858 1850 1855 1859 1857 1855
 1859 1858 1859 1855 1847 1847 1847 1890 1841 1843 1847 1851 1840 1846
 1862 1856 1855 1862 1861 1856 1861 1865 1857 1863 1799 1870 1899 1869
 1863 1872 1872 1860 1855 1854 1819 1857 1857 1855 1856 1859 1867 1868
 1853 1860 1852 1870 1854 1855 1850 1852 1856 1852 1860 1863 1859 1856
 1861 1864 1856 1851 1851 1846 1857 1851 1855 1857 1863 1870 1869 1872
 1860 1862 1853 1858 1858 1851 1856 1858 1855 1853 1853 1854 1857 1856
 1838 1837 1835 1840 1841 1843 1840 1840 1842 1840 1850 1853 1857 1852
 1815 1844 1839 1847 1839 1835 1839 1840 1837 1855 1850 1843 1840 1822
 1839 1826 1837 1841 1840 1846 1844 1843 1849 1847 1852 1856 1856 1852
 1844 1844 1840 1851 1847 1850 1859 1856 1856 1859 1860 1846 1851 1847
 1843 1838 1840 1843 1842 1854 1846 1845 1854 1856 1855 1862 1856 1855
 1846 1853 1846 1850 1850 1863 1863 1861 1865 1859 1849 1842 1848 1849
 1845 1841 1851 1846 1851 1846 1851 1853 1855 1856 1851 1849 1856 1855
 1856 1866 1856 1865 1867 1872 1873 1875 1878 1872 1866 1862 1857 1856
 1853 1851 1857 1858 1860 1870 1869 1866 1853 1853 1851 1844 1851 1853
 1859 1859 1850 1856 1856 1861 1868 1859 1861 1859 1851 1851 1852 1856
 1857 1868 1867 1858 1832 1903]",0
25,sub3_amostra0_1,"[1854 1857 1854 1854 1853 1852 1857 1855 1863 1863 1872 1903 1874 1867
 1872 1869 1874 1868 1872 1869 1863 1859 1855 1863 1868 1865 1863 1863
 1873 1862 1863 1866 1862 1858 1856 1863 1858 1863 1871 1872 1873 1871
 1870 1863 1865 1860 1863 1859 1861 1849 1843 1835 1840 1840 1835 1844
 1837 1827 1831 1827 1827 1825 1822 1822 1826 1834 1843 1850 1853 1845
 1843 1842 1846 1841 1836 1837 1824 1825 1840 1838 1838 1834 1840 1833
 1829 1828 1825 1825 1824 1819 1821 1824 1828 1826 1834 1838 1840 1835
 1839 1831 1827 1833 1838 1836 1843 1844 1850 1841 1838 1851 1847 1838
 1837 1834 1837 1834 1822 1827 1831 1835 1840 1844 1840 1837 1916 1838
 1839 1833 1829 1835 1805 1843 1857 1850 1857 1854 1842 1852 1850 1845
 1871 1845 1851 1849 1840 1840 1846 1842 1840 1840 1836 1837 1845 1840
 1841 1835 1838 1837 1843 1840 1841 1850 1854 1849 1847 1847 1841 1840
 1838 1837 1831 1835 1840 1840 1841 1840 1838 1838 1835 1833 1839 1833
 1829 1824 1827 1830 1837 1831 1839 1845 1845 1838 1831 1834 1823 1827
 1835 1842 1834 1839 1842 1851 1853 1844 1841 1843 1842 1839 1846 1842
 1841 1840 1834 1831 1842 1845 1847 1854 1843 1840 1845 1845 1837 1840
 1839 1841 1837 1841 1847 1854 1856 1843 1847 1841 1840 1840 1844 1845
 1841 1851 1861 1843 1851 1842 1849 1840 1848 1847 1843 1840 1841 1842
 1855 1843 1854 1855 1861 1862 1852 1852 1850 1846 1846 1884 1846 1853
 1859 1859 1863 1856 1855 1855 1856 1850 1851 1850 1853 1842 1841 1852
 1852 1852 1856 1857 1863 1861 1859 1872 1878 1854 1856 1858 1858 1847
 1874 1872 1873 1870 1872 1871 1874 1871 1863 1872 1867 1872 1864 1872
 1872 1872 1871 1869 1865 1860 1856 1866 1861 1855 1859 1862 1863 1866
 1872 1874 1872 1868 1872 1862 1872 1859 1858 1860 1839 1845 1856 1858
 1904 1837 1858 1839 1843 1865 1840 1845 1850 1840 1833 1843 1843 1849
 1856 1859 1837 1851 1847 1839 1840 1840 1843 1841 1841 1850 1854 1840
 1851 1846 1849 1841 1841 1840 1845 1839 1833 1840 1842 1849 1855 1857
 1839 1836 1835 1835 1834 1826 1823 1830 1840 1836 1842 1846 1852 1842
 1839 1844 1840 1835 1835 1833 1837 1840 1829 1827 1849 1837 1840 1835
 1835 1829 1837 1831 1833 1827 1829 1831 1841 1838 1847 1846 1850 1840
 1840 1840 1840 1828 1833 1838 1843 1842 1847 1856 1852 1840 1840 1840
 1838 1838 1840 1840 1836 1830 1830 1831 1844 1838 1841 1850 1856 1849
 1847 1845 1834 1838 1842 1840 1841 1840 1847 1851 1867 1830 1851 1851
 1845 1842 1846 1846 1843 1836 1839 1840 1846 1847 1842 1855 1842 1806
 1843 1846 1835 1835 1838 1838 1881 1845 1847 1856 1856 1854 1847 1845
 1844 1841 1841 1840 1907 1855 1867 1847 1843 1845 1854 1843 1840 1808
 1847 1840 1840 1842 1847 1842 1846 1853 1859 1919 1851 1847 1849 1846
