
2623
2487
2353
2243
2174
2147
2176
2245
2333
2399
2431
2029
1794
1534
1328
1207
1200
1293
1479
1764
2122
2498
2873
3203
3411
3420
3305
3091
2841
2573
2267
1893
1410
886
1263
993
819
753
812
1001
1311
1681
2029
2318
2538
2707
2832
2928
2944
2831
2604
2309
2003
1702
1379
1075
781
557
414
2673
2320
1835
1268
710
167
0
0
0
0
0
3
302
599
826
976
1088
1168
1259
1362
1495
1658
1859
2109
2393
2693
3029
3285
905
1409
1917
2400
2809
3085
3118
2876
2515
2155
1840
1616
1495
1478
1552
1695
1872
2062
2218
2303
2270
2093
1785
1365
1600
1886
2207
2524
2800
2999
3123
3200
3275
3327
3317
3205
2989
2706
2354
1920
1437
971
600
355
291
378
619
958
1053
818
685
613
637
745
879
986
1085
1094
1106
1129
1152
1189
1258
1358
1489
1666
1875
2111
2347
2586
2832
3085
3293
1382
1374
1435
1578
1776
2009
2275
2519
2682
2707
2611
2427
2181
1877
1588
1338
1187
1136
1166
1267
1439
1660
1904
1270
1452
1616
1763
1884
1977
2046
2117
2195
2267
2343
2411
2425
2387
2265
2031
1714
1390
1123
938
859
909
1086
1351
459
430
487
637
859
1168
1529
1916
2326
2715
3041
3283
3383
3280
3013
2671
2277
1883
1545
1303
1176
1112
1118
1124
615
498
447
463
519
598
727
912
1124
1296
1365
1332
1264
1229
1264
1375
1555
1759
1974
2197
2397
2535
2626
2672
2688
600
822
1184
1649
2134
2576
2925
3184
3287
3155
2923
2622
2266
1904
1583
1360
1282
1328
1456
1609
1831
1988
2112
2156
1711
1269
838
452
175
47
113
363
753
1232
1759
2272
2735
3098
3193
2957
2550
2105
1680
1377
1257
1337
1600
1968
2087
2203
2218
2190
2182
2224
2326
2515
2778
3059
3285
3350
3344
3248
2963
2705
2416
2080
1649
1119
550
0
0
0
0
14
463
1414
922
581
391
366
485
756
1123
1520
1904
2227
2474
2658
2763
2801
2769
2693
2540
2279
1947
1615
1341
1159
1076
1392
1443
1466
1486
1535
1614
1676
1744
1847
2032
2286
2526
2691
2773
2807
2817
2790
2751
2718
2711
2731
2751
2767
2778
4095
4095
4095
4095
4069
3406
2688
1948
1145
404
0
0
0
0
264
947
1776
2572
3317
4095
4095
4095
4095
3570
2862
2198
2490
1728
873
68
0
0
0
0
0
376
1011
1803
2627
3611
4095
4095
4095
4095
4095
4095
4095
4095
3961
3340
2734
2131
1466
3104
2527
1984
1469
1008
635
267
0
0
0
0
0
0
0
0
0
373
1109
2042
3036
4095
4095
4095
4095
4095
4095
4095
4095
4094
484
974
1440
1776
1929
1946
1872
1729
1525
1331
1232
1284
1534
1926
2404
2919
3565
4095
4095
4095
4095
3711
3255
2881
2007
2481
2977
3554
4067
4095
4066
3617
3211
2800
2429
2044
1611
1150
695
295
0
0
0
0
105
532
1069
1574
1965
2218
1683
1307
947
594
272
0
0
0
0
0
0
285
683
1161
1669
2124
2386
2416
2257
2006
1744
1507
1310
1168
1123
1241
1475
1856
917
1123
1385
1726
2130
2466
2672
2681
2512
2239
1921
1638
1458
1472
1659
1941
2279
2594
2774
2767
2575
2214
1776
556
1070
1616
2133
2613
3045
3509
3969
4095
4095
4095
3797
3318
2870
2422
1954
1463
1014
684
524
570
749
1109
1600
2141
1776
1939
2061
2143
2189
2119
1915
1628
1322
1052
854
773
784
895
1104
1393
1781
2197
2592
2947
3265
3458
3553
3462
2291
2238
2115
1951
1791
1681
1655
1742
1957
2286
2657
3051
3520
4041
4095
4095
4095
4095
3925
3520
3086
2687
2297
2725
2401
2097
1829
1646
1559
1560
1645
1779
1922
2037
2107
2113
1991
1683
1186
587
29
0
0
0
0
162
667
1339
2096
2846
553
963
1363
1729
2045
2325
2582
2832
3121
3485
3920
4095
4095
4095
4095
4095
4095
4095
3990
3671
3330
3037
2762
1286
1075
805
506
271
144
179
378
726
1210
1774
2346
2866
3327
3659
3765
3665
3427
3159
2944
2789
2673
2554
2382
2117
1216
1182
1167
1197
1307
1519
1759
1970
2176
2299
2289
2141
1872
1575
1333
1222
1258
1455
1792
2192
2608
3035
3514
1791
2282
2735
3173
3534
3549
3193
2734
2256
1840
1521
1379
1385
1458
1559
1668
1806
1985
2228
2534
2941
3532
4095
4095
3990
3521
3047
2647
2295
2032
1825
1552
1126
548
0
0
0
0
0
0
0
0
0
240
721
1260
1744
2147
2470
2723
2941
3169
3370
3914
3522
3088
2704
2352
2003
1659
1319
1005
739
595
541
566
750
1008
1352
1759
2114
2314
2305
2127
1869
1552
1331
2617
2645
2619
2579
2582
2622
2673
2749
2830
2914
2981
2960
2778
2447
2000
1457
871
346
0
0
0
0
283
748
1266
1714
2034
1392
1145
931
796
760
842
1016
1252
1482
1654
1697
1634
1504
1331
1125
919
765
654
577
559
627
774
983
1237
1505
4025
3579
3120
2720
2351
2014
1712
1459
1295
1213
1180
1200
1233
1297
1366
1394
1342
1230
1087
960
912
958
1136
1421
14
21
182
496
898
1307
1675
1986
2245
2453
2621
2704
2703
2601
2486
2398
2327
2293
2289
2299
2255
2047
1648
1088
474
1713
918
147
0
0
0
0
0
0
0
237
823
1553
2238
2757
3079
3198
3151
3025
2927
2859
2803
2785
2783
2786
2755
2646
2417
1885
1205
555
29
0
0
0
143
659
1313
2013
2717
3522
4095
4095
4095
4095
4021
3487
2937
2442
1958
1473
1015
671
464
370
688
917
1319
1776
2176
2426
2518
2463
2304
2081
1809
1535
1339
1251
1281
1374
1514
1689
1872
2031
2160
2215
2186
2082
167
606
1231
1935
2620
3273
4002
4095
4095
4095
4095
7
2288
2320
2334
2334
2319
2269
1831
1735
1628
1503
1343
1124
872
661
539
524
593
736
959
1200
1347
1328
1136
855
557
285
80
0
0
0
0
0
0
0
0
0
0
1118
1571
2067
2557
3038
3509
3809
3791
3487
2997
2524
2027
1526
1034
605
279
74
0
0
0
5
119
240
362
452
517
592
739
3197
2768
2397
2032
1731
1504
1357
1255
1198
1169
1122
955
638
181
0
0
0
0
0
0
141
576
1113
1634
2081
2422
2679
2799
2143
2320
2544
2771
2929
3020
3050
2993
2800
2496
2139
1755
1393
1062
678
294
0
0
0
0
0
234
531
823
1110
1349
1472
0
0
0
0
0
144
614
1216
1869
2471
3020
3485
3622
3410
3002
2623
2288
2046
1946
1983
2117
2274
2370
2384
2319
2219
2085
2513
2102
1646
1217
908
749
662
583
490
451
503
687
989
1396
1861
2318
2715
3037
3264
3287
3153
2912
2715
2553
2416
3178
2491
1785
1033
368
0
0
0
0
402
885
1385
1770
1908
1790
1568
1146
880
703
618
661
841
1139
1520
1952
2407
2842
460
590
693
806
971
1175
1485
1872
2343
2880
3553
4095
4095
4095
4095
4095
4095
4095
4095
4095
4095
4026
3574
2809
465
751
1104
1471
1808
2114
2442
2765
2999
3068
2997
2871
2690
2481
2250
2157
2119
2189
2366
2657
2995
3313
3504
3513
1594
1723
2058
2516
3114
3994
4095
4095
4095
4095
4067
3401
2703
2010
1309
609
221
0
0
0
122
530
1007
1470
1865
2192
2638
3015
3314
3447
3376
3181
2959
2785
2727
2778
2928
3162
3456
3760
3981
4026
3841
3309
2629
1814
881
19
0
0
0
0
2086
2510
2768
2896
2960
2975
2969
2973
2958
2955
2928
2885
2864
2878
2909
2947
2993
3003
2928
2742
2423
1986
1457
2995
2992
2941
2865
2781
2687
2608
2542
2493
2421
2332
2231
2159
2125
2090
1976
1787
1514
1152
767
439
237
157
218
419
4095
4095
4095
4095
4095
4094
3771
3390
3050
2767
2512
2302
2112
1891
1615
1265
890
490
54
0
0
0
0
0
76
464
964
1535
1733
1523
1411
1353
1301
1249
1232
1322
1520
1795
2106
2391
2644
2807
2867
2839
2787
2769
2837
3014
3312
3757
4095
1867
1866
1930
2079
2301
2576
2879
3198
3551
3907
4095
4095
3991
3394
2704
1986
1248
598
137
0
0
142
499
960
1405
1856
864
0
0
0
0
0
0
16
342
763
1209
1655
2055
2385
2625
2769
2821
2800
2762
2727
2722
2735
2768
2823
2881
2902
2873
2501
2354
1955
1373
708
82
0
0
0
0
99
492
925
1326
1644
1856
1975
2027
2064
2066
2175
2403
2781
3359
4095
4095
4095
160
393
795
1348
1978
2615
3287
4095
4095
4095
4095
4095
4095
3819
3365
2889
2427
1952
1462
923
246
0
0
0
0
0
0
0
102
1723
2535
3365
4095
4095
4095
4095
4095
4095
4095
4095
4095
4095
4048
3807
3419
2994
2585
2140
1606
960
308
0
0
0
0
0
15
406
907
1433
1893
2224
2437
2590
2707
2839
3003
3226
3485
3685
3685
3456
3101
2738
2418
2178
2041
2034
2139
2304
2623
2559
2454
2358
2318
2384
2551
2804
3133
3567
4048
4095
4095
4039
3573
3087
2674
2327
2063
1867
1743
1666
1632
1726
1936
2015
1995
1943
1933
2001
2207
2495
2787
3035
3219
3278
3187
2967
2686
2350
1988
1648
1376
1234
1231
1323
497
827
1315
1862
2378
2779
3056
3216
3250
3205
3110
2973
2780
2557
2305
2054
1808
1594
1395
1190
1053
991
1002
1075
0
0
18
421
976
1611
2207
2704
3113
3438
3633
3674
3557
3310
3001
2697
2416
2208
2096
2098
2171
2285
2288
2188
1989
1714
2014
2208
2262
2161
1863
1383
791
195
0
0
0
0
126
589
1168
1792
2365
2842
3254
3600
3790
3775
3568
3268
2976
2752
1173
1329
1559
1838
2113
2327
2428
2388
2256
1973
1697
1445
1221
1006
807
651
562
576
678
857
1104
1397
1722
2032
3233
2768
2203
1534
830
224
0
0
0
0
141
405
734
1074
1381
1648
1857
2025
2160
2306
2474
2647
2836
3015
3129
3118
2992
1533
1721
1857
1955
2021
2074
2149
2270
2396
2477
2481
2384
2206
2000
1782
1559
1348
1198
1136
1162
1288
1488
1694
1667
1707
1724
1711
1659
1594
1523
1486
1427
1369
1350
1402
1526
1710
1894
1988
1897
1585
1150
699
317
64
0
45
304
3179
3226
3238
3222
3149
2998
2845
2722
2635
2545
2419
2219
1939
1645
1346
1107
903
774
739
842
1086
1434
1786
2064
635
506
563
795
1194
1706
2246
2743
3159
3450
3525
3344
2990
2582
2165
1795
1505
1337
1280
1303
1387
1483
1535
1535
576
582
658
801
986
1169
1232
1139
961
768
611
528
557
726
1083
1566
2069
2591
3173
3937
4095
4095
4095
4095
4087
3678
3239
3531
3695
3673
3467
3162
2845
2559
2320
2113
1897
1652
1390
1157
991
930
965
1070
1190
1328
1503
1719
1968
2239
2283
2261
2238
2230
2282
2401
2570
2731
2842
2866
2817
2663
2335
1808
1121
429
0
0
0
0
0
91
349
603
810
965
1093
589
273
44
0
0
149
333
488
623
716
788
826
895
1057
1306
1643
2015
2384
2721
2997
3151
3088
2827
2480
2128
1766
1462
4095
4095
4095
4095
3737
3085
2445
1770
1104
593
243
67
64
210
507
932
1424
1925
2348
2649
2828
2902
2862
2741
2608
2336
2302
2319
2410
2554
2736
2914
3063
3175
3219
3181
3046
2847
2616
2368
2125
1872
1607
1334
1062
775
530
349
256
2388
2555
2629
2577
2448
2310
2197
2065
1926
1787
1646
1533
1466
1418
1374
1344
1319
1280
1264
1277
