
1865
1865
1865
1861
1857
1856
1858
1856
1852
1855
1854
1854
1856
1857
1859
1861
1867
1863
1863
1865
1865
1861
1861
1863
1861
1858
1850
1846
1851
1849
1850
1846
1856
1852
1853
1851
1853
1849
1854
1853
1854
1856
1847
1854
1850
1850
1849
1851
1851
1840
1840
1836
1835
1834
1828
1833
1837
1834
1840
1840
1839
1840
1839
1838
1839
1837
1835
1830
1831
1826
1829
1829
1812
1814
1810
1808
1808
1807
1804
1803
1802
1798
1796
1792
1793
1793
1792
1798
1799
1802
1803
1808
1808
1809
1776
1812
1818
1825
1824
1830
1826
1833
1833
1834
1833
1833
1825
1825
1821
1820
1823
1821
1818
1817
1821
1822
1825
1824
1831
1827
1825
1826
1825
1824
1825
1831
1837
1840
1834
1835
1840
1840
1840
1839
1838
1831
1830
1827
1821
1822
1808
1808
1827
1823
1825
1826
1826
1820
1819
1818
1811
1813
1814
1813
1819
1813
1813
1809
1815
1814
1809
1814
1809
1809
1806
1819
1824
1824
1825
1825
1828
1828
1830
1829
1822
1827
1827
1821
1823
1821
1859
1826
1830
1833
1831
1833
1833
1828
1827
1840
1840
1840
1840
1840
1837
1831
1867
1827
1827
1818
1816
1812
1810
1810
1803
1807
1808
1808
1810
1808
1812
1808
1829
1827
1834
1837
1840
1841
1846
1849
1849
1850
1854
1849
1851
1852
1843
1846
1847
1846
1848
1849
1850
1847
1843
1845
1842
1844
1842
1841
1840
1839
1837
1835
1838
1831
1834
1835
1837
1838
1840
1841
1842
1844
1841
1845
1846
1853
1857
1849
1846
1846
1843
1835
1837
1830
1834
1829
1831
1831
1825
1827
1827
1827
1824
1829
1829
1830
1828
1826
1833
1824
1824
1826
1826
1826
1829
1830
1837
1793
1837
1840
1840
1840
1842
1837
1839
1833
1824
1822
1827
1827
1829
1836
1840
1840
1840
1840
1840
1839
1839
1838
1838
1835
1835
1834
1838
1835
1838
1840
1841
1844
1844
1843
1843
1844
1847
1850
1856
1858
1856
1856
1855
1845
1845
1840
1840
1840
1840
1843
1842
1844
1844
1843
1847
1845
1842
1840
1839
1840
1841
1840
1835
1838
1840
1841
1840
1840
1837
1838
1837
1834
1835
1829
1828
1828
1830
1830
1829
1829
1827
1831
1829
1827
1830
1810
1807
1808
1806
1808
1810
1808
1811
1818
1818
1823
1826
1835
1830
1828
1829
1826
1826
1827
1824
1822
1822
1822
1828
1823
1825
1825
1817
1823
1819
1820
1822
1824
1825
1829
1827
1824
1822
1824
1824
1825
1835
1833
1847
1830
1831
1825
1829
1830
1836
1835
1840
1840
1840
1839
1835
1839
1839
1840
1839
1840
1840
1840
1841
1840
1837
1839
1835
1836
1834
1828
1823
1827
1831
1830
1835
1841
1840
1841
1840
1840
1836
1838
1837
1831
1826
1822
1818
1817
1819
1818
1824
1825
1840
1808
1840
1835
1834
1840
1837
1835
1838
1835
1839
1840
1846
1840
1840
1840
1839
1840
1835
1840
1831
1834
1831
1840
1839
1841
1839
1838
1840
1839
1840
1842
1843
1843
1845
1842
1849
1849
1847
1847
1845
1841
1840
1840
1837
1829
1840
1856
1857
1856
1856
1856
1855
1850
1852
1847
1849
1851
1853
1850
1851
1851
1851
1846
1849
1850
1851
1852
1851
1851
1840
1840
1840
1840
1840
1841
1854
1841
1836
1834
1833
1825
1827
1827
1825
1821
1825
1827
1829
1824
1840
1840
1835
1810
1837
1829
1829
1831
1837
1839
1837
1838
1838
1838
1838
1839
1840
1845
1842
1841
1840
1845
1840
1840
1840
1840
1850
1849
1845
1846
1845
1847
1841
1841
1840
1840
1840
1839
1835
1840
1840
1840
1838
1840
1837
1838
1834
1856
1831
1825
1826
1830
1830
1872
1837
1833
1833
1831
1829
1835
1826
1835
1830
1830
1826
1830
1823
1822
1823
1826
1823
1826
1826
1840
1840
1840
1837
1835
1834
1831
1833
1834
1834
1831
1829
1831
1828
1828
1827
1828
1827
1831
1835
1838
1840
1838
1840
1840
1840
1840
1842
1844
1840
1842
1840
1840
1841
1840
1834
1841
1840
1840
1839
1840
1840
1840
1839
1837
1840
1840
1836
1831
1829
1821
1822
1814
1815
1813
1811
1812
1820
1820
1820
1819
1819
1820
1824
1826
1829
1830
1831
1846
1837
1839
1841
1846
1846
1847
1850
1856
1857
1856
1861
1861
1858
1859
1858
1854
1850
1849
1850
1843
1844
1845
1847
1845
1840
1840
1841
1844
1842
1841
1840
1840
1839
1842
1843
1841
1837
1838
1837
1837
1838
1840
1840
1840
1840
1840
1840
1838
1824
1824
1824
1828
1830
1827
1827
1826
1830
1830
1836
1830
1839
1845
1843
1847
1849
1852
1852
1851
1849
1848
1842
1850
1851
1854
1851
1846
1843
1835
1834
1825
1825
1826
1829
1831
1831
1839
1834
1840
1840
1840
1839
1842
1839
1840
1838
1835
1870
1838
1839
1842
1843
1849
1846
1846
1851
1850
1853
1856
1856
1859
1858
1861
1864
1862
1837
1852
1851
1870
1863
1865
1862
1860
1867
1862
1861
1863
1863
1869
1870
1871
1871
1872
1869
1872
1868
1869
1865
1862
1863
1861
1857
1875
1881
1883
1883
1883
1878
1879
1881
1878
1918
1872
1872
1888
1871
1869
1867
1863
1859
1858
1857
1858
1855
1858
1862
1857
1865
1862
1869
1870
1867
1871
1866
1861
1865
1859
1858
1859
1862
1863
1861
1867
1869
1866
1869
1868
1867
1850
1845
1850
1852
1851
1853
1877
1860
1859
1861
1860
1861
1859
1856
1850
1851
1842
1852
1851
1856
1851
1856
1856
1856
1842
1887
1842
1841
1841
1846
1849
1845
1845
1853
1850
1853
1853
1853
1856
1851
1851
1851
1852
1855
1856
1855
1852
1839
1833
1835
1834
1833
1831
1835
1838
1834
1837
1840
1840
1840
1840
1840
1840
1842
1839
1840
1839
1839
1836
1831
1798
1807
1808
1808
1773
1818
1818
1823
1825
1830
1836
1831
1837
1835
1831
1837
1834
1836
1834
1835
1836
1836
1834
1855
1850
1850
1842
1841
1841
1842
1840
1840
1840
1842
1840
1840
1840
1840
1845
1847
1854
1849
1853

1759
1760
1757
1751
1749
1749
1754
1750
1751
1755
1756
1753
1746
1747
1749
1751
1748
1754
1757
1756
1759
1762
1767
1763
1770
1769
1772
1770
1775
1768
1771
1763
1761
1765
1766
1763
1761
1763
1771
1774
1778
1778
1778
1789
1787
1756
1785
1782
1777
1782
1790
1791
1798
1803
1805
1812
1809
1808
1808
1797
1793
1787
1782
1776
1779
1774
1776
1773
1773
1776
1722
1767
1805
1805
1808
1821
1804
1802
1801
1798
1798
1799
1803
1803
1798
1797
1798
1803
1802
1803
1804
1801
1806
1807
1809
1811
1819
1822
1814
1818
1809
1808
1809
1811
1811
1809
1811
1808
1813
1814
1811
1814
1809
1811
1808
1808
1811
1808
1808
1829
1825
1821
1818
1818
1815
1815
1815
1810
1812
1815
1818
1823
1821
1829
1826
1823
1825
1827
1827
1840
1830
1837
1808
1808
1810
1808
1813
1814
1809
1813
1808
1808
1808
1807
1808
1807
1810
1811
1813
1813
1811
1813
1815
1819
1821
1840
1838
1835
1842
1833
1834
1831
1831
1829
1829
1834
1829
1830
1829
1826
1829
1831
1840
1839
1840
1840
1840
1842
1840
1835
1837
1830
1833
1822
1821
1824
1819
1825
1823
1824
1827
1827
1829
1840
1846
1840
1837
1826
1815
1806
1802
1797
1827
1831
1833
1831
1830
1827
1829
1841
1836
1813
1814
1813
1814
1817
1819
1825
1831
1835
1841
1841
1840
1837
1830
1840
1840
1837
1840
1837
1837
1836
1834
1837
1834
1835
1831
1833
1831
1837
1835
1837
1840
1840
1841
1840
1840
1843
1811
1812
1814
1824
1829
1827
1829
1826
1827
1829
1827
1826
1827
1823
1824
1819
1818
1815
1815
1811
1810
1813
1818
1821
1797
1797
1794
1789
1787
1785
1786
1790
1783
1786
1786
1791
1795
1797
1798
1801
1801
1802
1807
1808
1808
1808
1808
1794
1793
1792
1795
1794
1797
1799
1804
1804
1808
1808
1807
1808
1808
1809
1808
1806
1798
1797
1798
1793
1791
1792
1809
1811
1819
1819
1813
1807
1821
1823
1826
1822
1821
1813
1809
1807
1807
1803
1802
1807
1802
1805
1808
1808
1807
1808
1818
1821
1818
1815
1810
1808
1803
1802
1796
1797
1797
1802
1807
1808
1806
1808
1805
1805
1802
1798
1801
1797
1790
1820
1818
1902
1819
1821
1822
1820
1823
1822
1820
1822
1823
1822
1821
1825
1825
1826
1826
1826
1820
1823
1815
1812
1815
1810
1813
1815
1815
1819
1823
1823
1827
1828
1830
1831
1829
1828
1824
1829
1835
1830
1834
1803
1830
1828
1830
1822
1821
1819
1823
1820
1815
1811
1808
1807
1805
1763
1808
1805
1805
1807
1808
1813
1819
1821
1821
1826
1823
1823
1825
1817
1814
1811
1807
1806
1803
1801
1805
1808
1808
1814
1811
1818
1819
1822
1818
1813
1816
1814
1819
1819
1821
1825
1808
1808
1808
1807
1807
1803
1802
1802
1801
1797
1802
1801
1803
1802
1803
1805
1803
1807
1808
1805
1783
1803
1802
1835
1832
1831
1829
1835
1829
1831
1832
1827
1828
1825
1824
1824
1825
1833
1835
1831
1835
1831
1837
1829
1830
1831
1829
1821
1825
1829
1829
1835
1838
1840
1840
1841
1839
1839
1840
1838
1831
1834
1829
1825
1825
1824
1827
1826
1831
1835
1840
1834
1834
1828
1829
1825
1822
1815
1813
1808
1813
1813
1817
1824
1825
1824
1826
1826
1825
1817
1818
1815
1821
1825
1825
1825
1825
1828
1821
1813
1815
1812
1809
1808
1808
1808
1808
1808
1815
1826
1838
1840
1840
1839
1839
1835
1806
1807
1806
1805
1806
1808
1808
1811
1856
1820
1818
1815
1821
1819
1817
1818
1814
1811
1808
1805
1806
1807
1808
1808
1819
1822
1823
1824
1829
1826
1827
1831
1826
1829
1825
1821
1821
1839
1809
1776
1807
1807
1808
1815
1821
1825
1824
1821
1815
1813
1808
1808
1806
1806
1803
1807
1808
1807
1808
1840
1808
1808
1808
1808
1808
1811
1813
1815
1808
1808
1808
1808
1802
1806
1802
1799
1797
1795
1799
1797
1794
1795
1795
1797
1795
1797
1794
1794
1799
1797
1803
1799
1797
1744
1813
1814
1814
1819
1821
1822
1819
1824
1822
1817
1814
1809
1808
1805
1803
1802
1802
1807
1808
1810
1811
1829
1824
1824
1826
1826
1830
1823
1824
1825
1823
1824
1825
1825
1826
1824
1826
1829
1827
1823
1826
1824
1826
1827
1829
1833
1813
1818
1817
1820
1819
1819
1823
1826
1824
1829
1827
1834
1827
1822
1815
1811
1813
1809
1808
1802
1808
1809
1810
1809
1808
1809
1811
1808
1809
1813
1811
1810
1809
1808
1807
1815
1806
1807
1802
1808
1808
1809
1810
1811
1817
1825
1825
1810
1808
1808
1808
1808
1803
1808
1808
1807
1808
1810
1811
1813
1809
1810
1808
1808
1806
1808
1808
1808
1809
1812
1830
1831
1837
1831
1834
1838
1834
1837
1831
1826
1826
1831
1831
1835
1835
1837
1837
1834
1830
1831
1827
1828
1826
1842
1847
1851
1858
1858
1857
1856
1856
1849
1846
1847
1846
1841
1840
1827
1839
1844
1846
1846
1854
1851
1851
1874
1843
1840
1838
1839
1838
1837
1837
1836
1834
1836
1831
1834
1830
1834
1840
1840
1843
1840
1846
1845
1846
1846
1850
1849
1822
1822
1823
1823
1824
1821
1831
1826
1826
1824
1822
1817
1819
1811
1812
1808
1809
1809
1808
1813
1812
1817
1821
1812
1810
1810
1810
1808
1812
1815
1815
1815
1818
1821
1823
1818
1820
1824
1818
1827
1825
1821
1822
1821
1818
1818
1811
1856
1871
1870
1873
1872
1879
1878
1882
1883
1885
1881
1881
1877
1882
1888
1879
1885
1885
1887
1889
1887
1890
1888
1937
1942
1941
1948
1951
1957
1957
1962
1963
1962
1966
1959
1958
1958
1954
1952
1956
1951
1954
1952
1959
1959
1962
2032
2032
2039
2055
2053
2047
2057
2061
2066
2059
2063
2061
2063
2059
2053
2045
2045
2043
2042
2046
2044
2054
2062
2066
2065
2064
2062
2064
2060
2055
2054
2044
2046
2045
2043
2044
2045
2047
2053
2061
2063
2061
2064
