
1897
1882
1897
1934
1986
2047
2075
2028
1941
1901
1888
1892
1908
1936
1968
1938
1857
1771
1773
1783
1831
1886
1954
1919
1905
1858
1936
1847
1755
1703
1707
1725
1769
1819
1827
1751
1664
1618
1648
1690
1776
1868
1951
1959
1919
1873
1863
1873
1907
1763
1781
1808
1847
1888
1908
1870
1809
1782
1786
1807
1863
1904
1906
1854
1784
1751
1741
1742
1755
1776
1808
1781
1889
1898
1856
1842
1843
1857
1856
1861
1879
1842
1771
1678
1634
1632
1663
1714
1793
1810
1777
1733
1744
1776
1818
1873
1673
1690
1727
1802
1878
1890
1866
1841
1846
1852
1857
1874
1915
1926
1869
1798
1754
1730
1724
1741
1774
1790
1749
1907
1891
1834
1770
1776
1833
1910
2000
2091
2131
2107
2017
1950
1907
1874
1846
1815
1826
1803
1721
1697
1689
1718
2032
2089
2142
2194
2188
2200
2160
2071
1954
1904
1904
1949
2014
2095
2159
2158
2077
2002
1970
1946
1923
1919
1925
1741
1805
1903
1968
2059
2006
2031
2055
2064
2064
2083
2045
1968
1863
1797
1782
1796
1846
1915
1984
1983
1950
1936
1950
1689
1606
1584
1628
1714
1886
1984
2034
2008
1955
1953
1969
2000
2027
2077
2089
2038
1947
1902
1882
1885
1908
1934
1686
1754
1811
1817
1753
1682
1651
1656
1680
1725
1799
1824
1801
1799
1826
1861
1891
1917
1962
1962
1901
1808
1729
1826
1759
1742
1741
1754
1774
1797
1828
1806
1723
1648
1622
1625
1655
1713
1789
1823
1821
1829
1883
1955
2004
2039
1841
1878
1939
2009
2018
2006
1941
1911
1901
1876
1857
1872
1883
1858
1789
1723
1681
1659
1634
1637
1682
1687
1667
1665
1926
1859
1782
1755
1751
1787
1847
1935
1993
2001
1952
1914
1856
1785
1733
1717
1731
1708
1646
1597
1584
1633
1697
1808
1842
1893
1969
2064
2087
2031
1943
1892
1855
1823
1809
1823
1834
1819
1773
1778
1809
1867
1917
1975
2021
2005
1970
2003
1962
1919
1884
1857
1819
1795
1793
1759
1712
1678
1695
1744
1802
1855
1918
1950
1947
1904
1887
1895
1906
1931
1831
1843
1898
1971
2058
2046
1994
1949
1904
1851
1778
1726
1691
1648
1574
1510
1517
1597
1710
1848
1995
2112
2133
1838
1840
1794
1705
1633
1616
1648
1734
1842
1953
1971
1943
1922
1925
1946
1968
1985
2027
2008
1937
1854
1811
1802
1791
1779
1803
1828
1889
1946
1970
1946
1857
1791
1747
1739
1743
1789
1858
1856
1807
1774
1755
1761
1773
1798
1846
1808
1847
1894
1856
1746
1647
1590
1578
1570
1596
1642
1674
1660
1615
1601
1605
1643
1712
1799
1873
1871
1796
1744
1715
1549
1504
1509
1533
1591
1662
1695
1669
1638
1628
1631
1633
1648
1681
1711
1686
1682
1590
1570
1573
1599
1651
1707
1828
1822
1758
1654
1574
1548
1566
1628
1718
1846
1889
1866
1821
1762
1693
1626
1567
1567
1559
1531
1477
1474
1518
1733
1713
1726
1733
1750
1769
1786
1728
1628
1561
1567
1616
1710
1825
1955
2000
1970
1926
1894
1870
1825
1778
1749
1715
1730
1808
1863
1831
1767
1743
1741
1744
1749
1773
1802
1778
1740
1715
1745
1803
1878
1967
2081
2123
2074
1995
1925
1913
1830
1808
1851
1933
2032
2142
2242
2273
2262
2256
2258
2243
2213
2173
2131
2030
1904
1801
1765
1791
1845
1936
2021
2022
2023
2042
2027
1968
1885
1856
1883
1918
2028
2115
2167
2129
2037
1959
1898
1843
1819
1840
1882
1887
1843
1893
1871
1851
1855
1864
1867
1872
1898
1885
1825
1754
1729
1743
1779
1840
1918
1975
1942
1874
1837
1831
1841
1862
1893
1984
2077
2154
2137
2064
1989
1914
1846
1784
1745
1771
1767
1726
1746
1687
1727
1802
1883
1985
2058
2059
2000
1968
1833
1769
1739
1765
1809
1872
1953
2081
2028
1946
1936
1923
1915
1904
1900
1909
1890
1834
1767
1742
1757
1795
1857
1922
1925
1915
1914
1873
1806
1707
1664
1678
1741
1822
1939
2064
2111
2098
2091
2095
2091
2087
2064
2055
1996
1893
1755
2017
1926
1815
1726
1658
1605
1580
1551
1616
1613
1599
1632
1699
1783
1863
1936
2000
1979
1915
1834
1792
1783
1801
1650
1701
1767
1859
1970
2001
1984
1958
1964
1990
2002
2013
2016
2003
1974
1872
1837
1844
1869
1911
1965
2064
1962
1764
1781
1752
1754
1778
1839
1901
1974
2071
2110
2085
2043
2021
2021
2017
2012
2016
1966
1861
1744
1658
1632
1651
1714
1812
1842
1873
1905
1943
1930
1846
1791
1776
1789
1803
1823
1857
1831
1760
1684
1663
1675
1697
1737
1799
1840
1820
1741
1790
1778
1745
1737
1758
1783
1806
1843
1878
1861
1803
1744
1735
1747
1785
1819
1869
1861
1812
1757
1733
1740
1799
1797
1835
1883
1949
2019
2047
1974
1872
1805
1775
1751
1734
1738
1740
1708
1669
1647
1665
1710
1763
1840
1927
1842
1859
1899
1872
1806
1716
1663
1645
1645
1680
1741
1777
1755
1716
1697
1695
1706
1726
1744
1769
1746
1681
1637
1633
1904
1912
1918
1904
1911
1921
1893
1814
1719
1664
1648
1655
1679
1728
1738
1697
1629
1602
1617
1658
1727
1807
1889
1999
2077
2064
1968
1897
1847
1811
1807
1812
1845
1850
1805
1750
1742
1755
1801
1854
1922
1965
1932
1865
1835
1827
1760
1717
1715
1744
1796
1871
1936
1933
1874
1840
1830
1845
1845
1866
1901
1902
1855
1798
1776
1795
1837
1891
1973
2021
1895
1917
1909
1863
1790
1747
1734
1745
1760
1799
1851
1754
1762
1728
1738
1751
1776
1803
1845
1846
1798
1730
1698
1941
1892
1871
1861
1851
1849
1867
1849
1790
1701
1655
1653
1684
1740
1806
1904
1936
1904
1872
1868
1856
1843
1840
1659
1711
1789
1887
1936
1925
1894
1893
1887
1874
1867
1876
1867
1795
1703
1649
1643
1662
1711
1789
1861
1863
1819
1725
1642
1582
1562
1573
1610
1664
1738
1733
1649
1558
1520
1529
1584
1653
1757
1840
1869
1845
1842
1866
1901
1939
1986
1819
1837
1863
1900
1886
1821
1763
1765
1799
1862
1941
2033
2032
1955
1884
1851
1842
1845
1846
1894
1894
1857
1786
1954
1953
1919
1922
1941
1967
1991
2022
2047
2023
1942
1891
1872
1883
1920
1979
2038
2037
1973
1904
1861
1826
1797
1859
1831
1826
1872
1914
1931
1919
1901
1899
1908
1918
1927
1936
1957
1921
1840
1756
1697
1661
1664
1712
1787
1823
1820
1824
1774
1694
1623
1615
1648
1714
1807
1925
2000
2011
1975
1955
1949
1935
1907
1891
1873
1811
1711
1638
1605
1627
1933
1931
1929
1936
1955
1978
1968
1893
1803
1746
1731
1743
1791
1858
1917
1921
1886
1885
1890
1892
1898
1907
1907
2054
2083
2028
1923
1847
1815
1812
1834
1867
1911
1895
1837
1759
1712
1679
1678
1703
1786
1849
1888
1909
1937
1962
1594
1532
1533
1589
1680
1791
1888
1910
1899
1886
1887
1894
1897
1915
1942
1923
1861
1789
1751
1758
1798
1855
1932
1974
1967
2064
2128
2118
2061
1998
1947
1900
1881
1899
1963
1994
1997
2011
2045
2065
2074
2076
2091
2058
1969
1879
1837
1689
1682
1712
1775
1842
1909
1979
2007
1987
1924
1887
1874
1877
1889
1922
1968
1946
1879
1829
1799
1789
1787
1794
1574
1563
1552
1552
1503
1403
1405
1439
1523
1633
1735
1830
1849
1803
1715
1664
1649
1664
1698
1775
1827
1810
1746
1947
1840
1745
1692
1667
1660
1666
1723
1749
1774
1808
1874
1951
2015
2078
2139
2142
2069
1950
1853
1797
1789
1815
1871
1881
1910
1931
1950
1904
1786
1693
1648
1652
1712
1805
1922
1967
1948
1919
1903
1907
1919
1936
1962
1957
1887
1776
1973
1919
1921
1890
1903
1909
1924
1936
1930
1854
1734
1630
1568
1565
1603
1669
1734
1747
1698
1658
1673
1730
1793
1673
1681
1729
1792
1883
1933
1923
1877
1851
1819
1789
1772
1775
1769
1729
1659
1635
1651
1703
1771
1851
1938
1971
1836
1859
1840
1763
1689
1664
1691
1749
1824
1911
1978
1971
1935
1920
1918
1939
1949
1972
1993
1950
1856
1779
1739
1728
1935
1884
1841
1806
1780
1792
1756
1712
1664
1649
1672
1699
1727
1776
1808
1780
1733
1734
1780
1850
1921
2002
2082
1258
1419
1569
1682
1825
1971
2112
2210
2283
2326
2300
2209
2069
1945
1854
1790
1748
1744
1744
1669
1638
1589
1535
1826
1755
1710
1703
1726
1772
1796
1745
1680
1621
1593
1578
1550
1535
1582
1584
1594
1579
1598
1642
1709
1789
1874
1920
2138
2137
2119
2033
1905
1828
1797
1776
1803
1846
1903
1886
1814
1744
1718
1715
1717
1735
1786
1787
1727
1660
1621
1583
1503
1462
1505
1583
1674
1776
1844
1866
1846
1853
1872
1913
1949
1975
1995
1945
1856
1802
1787
1796
1803
1808
1938
1983
2031
2103
2127
2075
1986
1941
1914
1894
1891
1923
1949
1920
1855
1835
1858
1903
1956
2021
2069
2043
1956
1803
1735
1683
1680
1690
1719
1776
1850
1839
1808
1805
1850
1906
1987
2036
2091
2093
2015
1907
1808
1787
1794
1830
1883
1740
1747
1792
1862
1902
1894
1895
1919
1954
2013
2102
2201
2239
2205
2139
2086
2023
1971
1936
1922
1877
1783
1655
1842
1885
1886
1917
1969
2018
2064
2107
2141
2116
2014
1923
1883
1869
1873
1907
1978
2003
1977
1937
1927
1934
1945
1731
1738
1775
1824
1894
1935
1884
1805
1759
1758
1774
1794
1835
1859
1840
1787
1733
1729
1759
1822
1913
2015
2080
1881
1903
1878
1811
1744
1723
1735
1778
1846
1933
1979
1968
1887
1872
1879
1885
1897
1925
1954
1919
1844
1787
1783
1799
2013
2000
2007
2009
2019
2045
2021
1950
1856
1806
1797
1818
1871
1942
1969
1933
1862
1823
1808
1808
1853
1835
1863
1958
2062
2081
2035
2009
2000
2001
1995
1991
1994
1952
1867
1779
1728
1723
1744
1789
1859
1891
1835
1750
1712
1713
1631
1554
1520
1552
1623
1728
1829
1870
1842
1807
1787
1776
1778
1805
1843
1839
1785
1744
1734
1753
1803
1865
1939
1974
1764
1808
1830
1792
1721
1691
1708
1751
1820
1913
1998
2001
1955
1929
1920
1923
1951
1919
1934
1895
1811
1741
1680
1947
1904
1902
1922
1936
1970
2023
2060
2034
1968
1940
1947
1984
2034
2105
2176
2179
2126
2078
2032
2002
1970
1950
1852
1944
2061
2175
2211
2177
2128
2090
2059
2025
1999
2007
2005
1968
1883
1845
1840
1869
1913
1987
2047
2028
1951
2106
2018
1947
1908
1893
1893
1904
1921
1868
1757
1642
1575
1565
1595
1648
1741
1829
1883
1891
1921
1982
2035
2094
2133
2034
1999
1999
1994
1936
1830
1732
1681
1694
1747
1829
1930
1968
1951
1936
1931
1938
1937
1931
1935
1921
1865
1754
2062
1987
1883
1826
1793
1789
1799
1843
1894
1905
1867
1847
1863
1909
1968
2025
2109
2111
2054
2006
2013
2057
2105
1550
1552
1594
1664
1781
1872
1904
1874
1872
1879
1906
1942
2001
2041
2019
1930
1842
1782
1744
1718
1725
1776
1806
1943
1970
1968
1908
1833
1786
1783
1808
1862
1862
1840
1758
1627
1511
1530
1543
1573
1605
1719
1762
1741
1717
1744
1795
1817
1700
1645
1597
1598
1655
1682
1683
1680
1734
1829
1925
2007
2070
2068
1989
1878
1808
1767
1757
1763
1791
1817
2322
2355
2287
2145
1980
1866
1779
1774
1808
1891
1936
1921
1874
1872
1890
1942
2033
2111
2243
2249
2202
2176
2165
2196
2175
2181
2209
2246
2293
2323
2258
2128
1998
1924
1913
1945
2055
2196
2315
2353
2354
2386
2465
2592
2746
2896
3004
2123
2143
2198
2239
2225
2224
2239
2279
2352
2450
2559
2605
2559
2517
2487
2475
2486
2495
2577
2482
2370
2211
2101
2032
1988
2027
2114
2209
2288
2358
2375
2320
2211
2156
2148
2213
2281
2377
2465
2467
2419
2394
2370
2352
2279
2271
1986
2221
2363
2533
2624
2591
2501
2423
2357
2291
2252
2249
2258
2222
2128
2073
2064
2067
2087
2117
2148
2102
1971
1728
1545
1407
1378
1424
1495
1585
1678
1703
1680
1644
1655
1675
1816
1910
1989
2027
1966
1827
1737
1721
1776
1904
2094
1633
1466
1314
1190
1019
866
784
816
941
1123
1343
1588
1749
1827
1871
1921
1979
2018
2053
2066
2034
1945
1795
1670
1588
1456
1409
1405
1427
1483
1573
1675
1719
1697
1601
1626
1601
1570
1534
1519
1507
1495
1489
1535
1611
1665
1682
1374
1379
1433
1521
1613
1630
1584
1566
1554
1544
1481
1424
1423
1423
1441
1479
1598
1734
1871
2000
2122
2185
2160
1664
1693
1669
1612
1584
1597
1626
1665
1719
1765
1737
1653
1599
1559
1507
1451
1401
1360
1283
1199
1112
1090
1125
1199
1381
1419
1465
1504
1567
1584
1531
1449
1392
1375
1393
1437
1501
1561
1553
1488
1427
1383
1354
1332
1328
1337
1295
1356
1328
1248
1183
1162
1166
1198
1243
1311
1344
1319
1232
1185
1173
1213
1267
1344
1411
1418
1350
1295
1265
1255
912
925
991
1092
1200
1317
1377
1394
1401
1415
1430
1423
1413
1406
1377
1302
1200
1125
1090
1072
1078
1105
1165
1177
976
1020
1034
1001
991
1029
1108
1203
1316
1447
1509
1524
1490
1462
1423
1373
1322
1200
1234
1167
1061
1004
976
1014
1650
1679
1692
1701
1713
1729
1697
1631
1556
1519
1514
1534
1599
1664
1717
1702
1651
1605
1573
1531
1508
1520
1518
1808
1872
1910
1894
1835
1792
1766
1749
1730
1726
1739
1711
1661
1634
1655
1691
1744
1808
1873
1910
1898
1866
1851
1786
1794
1825
1855
1905
1966
2029
2023
1965
1958
1952
1957
1953
1955
1963
1915
1827
1739
1685
1664
1667
1661
1744
1738
1950
1915
1861
1789
1762
1769
1808
1867
1940
2000
1974
1901
1837
1812
1807
1807
1826
1858
1853
1797
1753
1747
1774
1854
1867
1895
1918
1936
1965
1961
1909
1840
1792
1765
1757
1741
1754
1776
1729
1672
1651
1671
1709
1738
1776
1810
2053
2096
2139
1988
2032
1941
1874
1830
1797
1773
1776
1745
1679
1591
1548
1563
1654
1785
1950
2125
2222
2256
2279
2271
1905
1847
1838
1855
1910
1984
2087
2137
2122
2097
2087
2080
2070
2064
2083
2087
2054
2000
1975
1989
2043
2097
2175
2069
2016
1982
1964
1903
1834
1785
1787
1815
1874
1965
2064
2105
2092
2077
2075
2082
2083
2087
2091
2075
2017
1923
2144
2095
2015
2031
2010
2029
1945
1919
1841
1753
1679
1649
1671
1720
1808
1926
2007
2042
2061
2064
2061
2023
1971
1920
1973
2079
2150
2173
2156
2129
2097
2047
1993
1948
1920
1857
1779
1738
1738
1783
1853
1945
2066
2141
2150
2112
2074
1760
1712
1678
1675
1705
1755
1835
1894
1879
1849
1831
1839
1841
1856
1865
1889
1870
1817
1776
1777
1803
1838
1881
2073
2085
2031
2034
2020
1985
1929
1885
1872
1871
1895
1936
1987
1987
1963
1951
1965
1946
1949
1953
1968
1946
1910
2007
1991
1918
1860
1798
1822
1818
1824
1851
1856
1829
1781
1776
1811
1878
1953
2038
2117
2159
2149
2133
2122
2106
2090
1909
1978
2057
2130
2206
2211
2170
2099
2058
2014
1986
1954
1945
1891
1815
1722
1677
1672
1696
1744
1808
1887
1925
1787
1677
1553
1472
1470
1524
1626
1746
1881
1959
1990
2000
2023
2055
2077
2083
2098
2096
2064
1986
1945
1934
1940
1999
2096
2163
2199
2219
2226
2174
2087
1999
1962
1937
1934
1947
1984
1965
1873
1771
1742
1723
1727
1759
1824
1877
1899
1791
1795
1769
1731
1729
1762
1793
1831
1887
1933
1947
1923
1891
1883
1855
1918
1945
1998
1991
1939
1882
1855
1845
1763
1759
1789
1843
1904
1967
1998
1958
1881
1827
1797
1797
1817
1861
1918
1917
1897
1852
1825
1813
1797
1808
1838
2053
2055
2130
2129
2084
1989
1921
1876
1817
1857
1872
1883
1844
1773
1724
1705
1685
1675
1672
1697
1712
1705
1710
1968
1904
1853
1811
1778
1753
1751
1742
1712
1699
1716
1760
1830
1913
2017
2101
2099
2034
1961
1933
1900
1862
1840
1842
1744
1838
1873
1863
1849
1850
1856
1841
1833
1834
1824
1777
1729
1712
1712
1732
1759
1799
1840
1835
1802
1780
1776
1776
1778
1807
1849
1883
1881
1966
1971
1939
1865
1806
1750
1703
1679
1680
1689
1685
1655
1659
1700
1771
1856
1949
1794
1776
1776
1779
1739
1677
1633
1641
1669
1725
1798
1875
1914
1904
1840
1841
1820
1798
1806
1822
1837
1819
1788
1776
2003
2071
2118
2165
2179
2176
2171
2175
2157
2082
2019
1998
1991
2009
2031
2079
2069
2006
1927
1882
1855
1832
1808
1714
1680
1673
1703
1743
1776
1790
1826
1874
1922
1965
2000
2032
2018
1971
1925
1919
1934
1982
2037
2114
2114
2075
1979
1919
1827
1764
1744
1744
1778
1835
1882
1891
1871
1859
1872
1872
1872
1873
1883
1856
1791
1726
1705
1728
1787
1863
1937
1904
1901
1889
1865
1808
1790
1795
1839
1885
1945
2000
2007
1983
1975
1982
1995
1990
1983
1969
1917
1839
1781
1898
1893
1873
1870
1846
1840
1803
1840
1850
1831
1813
1815
1838
1877
1927
1969
2009
2000
1953
1919
1908
1904
1911
1627
1683
1751
1817
1891
1886
1829
1753
1706
1680
1654
1639
1642
1663
1661
1638
1651
1700
1765
1842
1920
2007
2032
1838
1853
1835
1787
1765
1776
1837
1883
1962
2044
2075
2032
1949
1904
1776
1678
1606
1584
1584
1558
1520
1535
1601
1696
1466
1394
1372
1374
1425
1520
1583
1609
1664
1766
1891
2032
2161
2288
2353
2356
2306
2278
2251
2224
2190
2173
2162
2047
2073
2039
1962
1888
1823
1765
1695
1616
1546
1473
1355
1298
1317
1376
1472
1599
1755
1878
1968
2032
2109
2176
1565
1507
1521
1601
1718
1847
1965
2009
2003
2003
2037
2117
2074
2078
2094
2065
1987
1917
1866
1827
1805
1795
1823
1840
1936
1947
1919
1852
1747
1658
1611
1589
1634
1699
1794
1808
1781
1763
1766
