
1920
1927
1925
1911
1899
1875
1867
1861
1870
1872
1878
1870
1867
1869
1875
1900
1914
1922
1919
1913
1902
1871
1857
1850
1842
1845
1900
1911
1923
1921
1915
1887
1855
1815
1802
1797
1799
1808
1818
1811
1813
1814
1830
1850
1871
1878
1890
1891
1885
1894
1902
1888
1883
1898
1912
1927
1936
1939
1937
1921
1899
1878
1868
1865
1865
1871
1872
1872
1882
1879
1901
1918
1847
1855
1857
1864
1867
1875
2189
1872
1879
1901
1917
1921
1918
1915
1903
1887
1889
1855
1849
1845
1849
1849
1846
1840
1846
1854
1842
1826
1811
1810
1813
1822
1823
1822
1823
1827
1830
1849
1866
1872
1872
1869
1855
1838
1815
1803
1803
1830
1843
1871
1879
1882
1875
1862
1831
1803
1782
1776
1777
1782
1788
1799
1802
1807
1822
1841
1865
1877
1877
1874
1781
1788
1794
1797
1796
1803
1821
1840
1861
1861
1863
1853
1841
1815
1793
1789
1787
1789
1782
1797
1787
1790
1794
1820
1809
1797
1798
1808
1819
1826
1828
1840
1837
1840
1855
1870
1872
1879
1895
1865
1843
1808
1795
1786
1785
1787
1789
1936
1935
1921
1904
1883
1868
1854
1864
1871
1866
1872
1867
1858
1851
1867
1874
1887
1894
1897
1883
1873
1852
1841
1825
1840
1858
1874
1884
1882
1873
1870
1856
1840
1839
1840
1843
1850
1850
1845
1853
1846
1858
1868
1876
1879
1875
1755
1760
1775
1776
1787
1786
1797
1815
1833
1843
1840
1844
1824
1803
1782
1770
1769
1775
1776
1775
1775
1767
1765
1781
1808
1792
1783
1777
1788
1787
1803
1786
1776
1763
1772
1783
1807
1817
1818
1825
1823
1810
1797
1797
1803
1809
1814
1907
1922
1916
1915
1904
1874
1857
1842
1839
1840
1842
1840
1856
1858
1860
1872
1896
1917
1922
1919
1921
1901
1887
1819
1820
1828
1839
1861
1878
1894
1888
1890
1875
1858
1840
1832
1823
1819
1825
1822
1827
1829
1823
1827
1841
1861
1807
1808
1807
1811
1821
1824
1831
1850
1869
1887
1901
1901
1899
1887
1863
1849
1830
1826
1821
1824
1827
1841
1842
1858
1868
1831
1809
1782
1782
1787
1783
1791
1808
1808
1814
1819
1842
1861
1872
1870
1873
1861
1847
1826
1819
1809
1821
1779
1798
1817
1829
1826
1814
1794
1762
1744
1734
1738
1744
1750
1760
1765
1774
1787
1807
1826
1840
1849
1848
1843
1811
1821
1823
1828
1831
1851
1867
1881
1889
1890
1881
1858
1830
1808
1795
1795
1805
1803
1807
1821
1823
1835
1853
1824
1807
1797
1794
1796
1805
1807
1867
1824
1841
1853
1872
1888
1889
1895
1883
1859
1834
1808
1790
1783
1782
1776
1787
1853
1859
1856
1843
1837
1815
1815
1817
1815
1818
1831
1829
1826
1825
1839
1857
1870
1871
1872
1861
1852
1836
1821
1851
1871
1870
1887
1892
1897
1889
1866
1835
1808
1792
1787
1792
1795
1808
1808
1819
1840
1856
1872
1890
1903
1899
1789
1785
1789
1792
1795
1798
1808
1825
1843
1859
1859
1856
1856
1829
1809
1798
1793
1794
1795
1802
1793
1794
1802
1819
1839
1820
1799
1790
1791
1787
1791
1795
1792
1797
1809
1829
1851
1857
1860
1859
1841
1809
1773
1753
1744
1739
1739
1845
1862
1859
1865
1860
1842
1819
1803
1801
1805
1806
1802
1802
1792
1776
1781
1801
1819
1826
1839
1837
1834
1821
1791
1763
1744
1726
1744
1767
1779
1790
1798
1799
1782
1781
1777
1777
1784
1797
1807
1809
1799
1799
1805
1819
1839
1798
1799
1796
1799
1806
1808
1808
1821
1840
1866
1880
1879
1878
1873
1856
1838
1827
1827
1828
1837
1839
1843
1845
1841
1857
1842
1819
1794
1792
1791
1794
1808
1810
1799
1782
1772
1788
1796
1808
1822
1827
1821
1803
1782
1781
1776
1782
1855
1872
1878
1885
1883
1875
1863
1840
1825
1818
1814
1819
1824
1834
1824
1818
1821
1834
1854
1867
1869
1868
1857
1836
1840
1842
1881
1853
1869
1878
1904
1957
1904
1901
1885
1871
1854
1850
1852
1856
1867
1865
1872
1872
1872
1886
1839
1822
1815
1810
1822
1828
1840
1841
1847
1846
1857
1876
1889
1904
1899
1895
1883
1866
1846
1843
1847
1849
1851
1866
1850
1853
1856
1850
1827
1870
1790
1787
1783
1789
1794
1793
1795
1799
1811
1831
1849
1858
1862
1873
1851
1830
1813
1801
1793
1808
1830
1839
1842
1845
1834
1815
1792
1783
1793
1797
1808
1817
1823
1826
1821
1835
1853
1863
1873
1872
1793
1808
1814
1834
1840
1846
1865
1890
1910
1922
1919
1914
1920
1840
1809
1782
1769
1786
1791
1803
1808
1808
1815
1838
1874
1857
1846
1845
1856
1859
1862
1868
1839
1858
1857
1872
1887
1898
1898
1900
1892
1878
1854
1845
1844
1841
1851
1866
1882
1890
1885
1878
1861
1839
1827
1831
1831
1831
1840
1840
1841
1837
1845
1861
1888
1894
1892
1882
1885
1856
1781
1777
1776
1791
1808
1828
1847
1852
1854
1858
1840
1831
1801
1791
1791
1791
1791
1798
1794
1776
1777
1792
1812
1809
1811
1809
1818
1831
1813
1801
1799
1809
1827
1846
1855
1859
1850
1847
1838
1825
1823
1825
1829
1834
1834
1828
1825
1890
1873
1849
1828
1817
1814
1819
1879
1837
1836
1838
1853
1871
1891
1909
1918
1905
1902
1882
1858
1825
1835
1840
1805
1818
1840
1855
1862
1860
1861
1851
1852
1858
1867
1871
1872
1879
1876
1871
1871
1872
1886
1902
1897
1894
1878
1797
1797
1796
1799
1793
1801
1824
1840
1850
1855
1847
1836
1803
1787
1722
1773
1774
1778
1786
1795
1792
1795
1808
1875
1854
1833
1828
1829
1827
1833
1836
1834
1824
1877
1846
1862
1872
1870
1870
1857
1840
1827
1815
1822
1825
1827
1833
1872
1872
1876
1868
1850
1827
1819
1808
1813
1817
1821
1827
1833
1840
1856
1875
1895
1907
1904
1901
1883
1850
1829
1772
1776
1794
1811
1830
1840
1841
1834
1814
1797
1791
1791
1798
1801
1808
1809
1824
1827
1840
1861
1877
1889
1889
1829
1835
1844
1849
1856
1860
1881
1898
1911
1922
1919
1911
1892
1873
1856
1849
1842
1846
1849
1849
1851
1859
1858
1871
1842
1827
1818
1808
1811
1814
1814
1821
1824
1826
1831
1850
1871
1875
1879
1873
1862
1844
1819
1808
1806
1808
1809
1861
1883
1881
1887
1872
1857
1826
1801
1792
1795
1794
1798
1858
1806
1806
1808
1835
1851
1863
1866
1867
1858
1838
1794
1786
1766
1759
1771
1789
1807
1815
1819
1818
1872
1799
1792
1787
1786
1799
1794
1806
1812
1805
1809
1826
1844
1774
1776
1785
1791
1798
1808
1808
1814
1839
1840
1863
1868
1862
1842
1827
1798
1778
1776
1774
1776
1781
1796
1796
1802
1881
1872
1844
1822
1806
1802
1803
1795
1808
1802
1798
1801
1814
1831
1853
1860
1859
1844
1827
1808
1797
1802
1805
1844
1864
1884
1891
1894
1886
1867
1845
1827
1822
1822
1825
1824
1831
1826
1820
1809
1818
1836
1850
1855
1857
1847
1798
1805
1808
1808
1811
1827
1851
1863
1874
1872
1858
1846
1814
1786
1782
1776
1776
1783
1786
1780
1773
1778
1791
1825
1792
1776
1769
1781
1773
1779
1778
1782
1791
1809
1835
1854
1866
1867
1869
1850
1826
1807
1805
1803
1811
1810
1825
1859
1861
1861
1813
1814
1795
1782
1782
1786
1787
1792
1805
1814
1815
1844
1869
1885
1895
1894
1887
1861
1838
1808
1840
1839
1854
1872
1883
1887
1883
1856
1840
1811
1803
1799
1807
1802
1814
1818
1813
1818
1826
1843
1861
1872
1874
1803
1808
1813
1821
1825
1826
1844
1853
1867
1873
1874
1872
1840
1794
1754
1739
1731
1731
1739
1750
1751
1758
1761
1779
1861
1841
1831
1831
1822
1838
1840
1847
1854
1867
1833
1888
1906
1915
1909
1911
1901
1880
1858
1847
1842
1840
1850
1840
1855
1863
1858
1856
1843
1819
1808
1801
1803
1807
1815
1822
1818
1825
1837
1861
1883
1894
1895
1902
1881
1856
1792
1776
1769
1770
1787
1809
1826
1833
1845
1846
1837
1814
1814
1810
1818
1830
1830
1840
1838
1835
1838
1853
1873
1847
1851
1854
1857
1807
1863
1859
1859
1872
1893
1904
1902
1904
1899
1881
1863
1863
1854
1856
1860
1861
1869
1863
1857
1906
1903
1875
1859
1849
1847
1846
1842
1856
1846
1840
1837
1845
1871
1878
1885
1886
1874
1856
1833
1813
1808
1811
1855
1872
1889
1898
1895
1883
1872
1856
1839
1830
1831
1835
1836
1815
1847
1853
1853
1869
1890
1904
1910
1910
1891
1823
1850
1844
1830
1823
1819
1828
1841
1843
1850
1840
1833
1813
1806
1798
1805
1811
1821
1826
1840
1827
1837
1845
1811
1794
1789
1791
1802
1807
1811
1818
1835
1841
1865
1889
1899
1906
1895
1888
1867
1840
1811
1802
1799
1795
1798
1807
1874
1872
1870
1849
1813
1792
1775
1761
1762
1767
1776
1782
1792
1819
1837
1863
1875
1900
1897
1882
1856
1826
1798
1785
1798
1813
1840
1845
1849
1852
1808
1822
1802
1792
1786
1789
1795
1805
1789
1774
1809
1827
1842
1856
1868
1863
1830
1828
1831
1840
1813
1802
1802
1813
1836
1851
1850
1855
1837
1809
1787
1776
1776
1786
1793
1808
1818
1824
1835
1856
1845
1830
1824
1831
1835
1840
1840
1847
1844
1842
1842
1869
1879
1888
1888
1887
1875
1859
1840
1833
1829
1834
1834
1895
1904
1914
1907
1895
1898
1875
1868
1861
1867
1872
1873
1878
1882
1886
1885
1899
1911
1915
1909
1905
1894
1878
1851
1844
1847
1851
1869
1882
1898
1895
1893
1879
1862
1840
1822
1815
1823
1827
1827
1838
1840
1842
1851
1868
1885
1791
1792
1795
1807
1808
1789
1787
1807
1805
1819
1837
1844
1841
1839
1819
1799
1787
1777
1776
1785
1787
1797
1801
1789
1875
1863
1840
1819
1808
1807
1809
1809
1815
1776
1810
1813
1828
1846
1857
1865
1868
1858
1847
1826
1813
1808
1810
1819
1834
1841
1842
1849
1842
1827
1807
1782
1771
1776
1776
1774
1773
1794
1799
1810
1831
1853
1871
1870
1870
1861
1817
1825
1832
1825
1840
1851
1867
1883
1899
1896
1888
1871
1857
1842
1835
1838
1841
1841
1850
1862
1851
1845
1865
1848
1830
1818
1815
1815
1817
1824
1824
1817
1866
1823
1841
1858
1879
1871
1869
1857
1829
1808
1800
1802
1804
1805
1808
1881
1881
1886
1872
1856
1841
1838
1837
1840
1841
1847
1834
1823
1815
1815
1833
1845
1860
1857
1856
1841
1835
1815
1856
1857
1872
1885
1898
1903
1899
1891
1875
1846
1837
1839
1840
1840
1842
1843
1863
1859
1877
1895
1907
1914
1911
1819
1821
1826
1833
1838
1828
1837
1850
1861
1871
1872
1871
1862
1840
1823
1812
1812
1815
1823
1825
1829
1821
1821
1831
1818
1795
1786
1782
1781
1781
1791
1795
1795
1808
1813
1835
1857
1867
1872
1866
1847
1878
1806
1787
1790
1786
1790
1867
1877
1873
1875
1860
1842
1820
1802
1808
1798
1804
1802
1808
1807
1792
1793
1801
1817
1833
1835
1833
1823
1799
1812
1815
1818
1827
1845
1867
1876
1881
1881
1871
1847
1821
1803
1796
1806
1808
1808
1819
1810
1809
1819
1829
1856
1803
1805
1808
1807
1818
1808
1801
1801
1809
1835
1843
1853
1852
1843
1834
1816
1813
1812
1818
1824
1824
1840
1842
1840
1852
1845
1830
1808
1808
1817
1814
1810
1819
1793
1767
1744
1733
1747
1759
1772
1776
1776
1778
1760
1763
1767
1776
1859
1874
1888
1897
1904
1892
1889
1873
1862
1853
1860
1858
1870
1872
1865
1845
1835
1836
1842
1861
1872
1870
1857
1828
1833
1833
1829
1833
1851
1865
1885
1895
1902
1900
1882
1869
1855
1844
1840
1840
1888
1843
1838
1822
1813
1824
1844
1827
1815
1821
1822
1834
1830
1831
1807
1792
1792
1803
1815
1831
1833
1830
1837
1818
1808
1812
1813
1820
1829
1837
1850
1854
1861
1846
1837
1818
1812
1815
1815
1822
1839
1829
1821
1811
1793
1826
1843
1855
1857
1857
1843
1830
1808
1858
1873
1890
1906
1915
1911
1904
1897
1877
1857
1854
1842
1845
1847
1855
1854
1851
1840
1846
1862
1877
1887
1881
1840
1840
1847
1851
1857
1855
1856
1869
1877
1894
1905
1885
1869
1850
1826
1813
1813
1823
1825
1834
1841
1850
1846
1859
1855
1839
1814
1813
1808
1813
1818
1822
1799
1797
1790
1801
1821
1829
1839
1840
1833
1821
1813
1809
1822
1827
1838
1840
1854
1867
1869
1869
1853
1831
1817
1813
1808
1811
1819
1821
1794
1781
1777
1799
1807
1813
1827
1826
1855
1815
1840
1837
1829
1829
1840
1849
1861
1867
1872
1869
1857
1834
1819
1823
1821
1792
1831
1831
1899
1827
1832
1855
1856
1834
1833
1840
1840
1852
1849
1855
1860
1873
1890
1906
1904
1909
1898
1885
1861
1856
1843
1842
1846
1853
1862
1866
1869
1886
1857
1821
1795
1778
1776
1776
1777
1792
1796
1799
1810
1830
1853
1870
1879
1872
1870
1852
1822
1807
1795
1801
1825
1836
1845
1857
1854
1853
1829
1798
1759
1738
1733
1733
1738
1743
1753
1755
1764
1790
1811
1829
1840
1845
1839
1823
1821
1827
1834
1841
1853
1866
1887
1890
1887
1879
1863
1840
1809
1794
1789
1788
1792
1799
1799
1805
1808
1827
1787
1750
1729
1718
1727
1727
1733
1747
1759
1775
1790
1818
1840
1856
1851
1858
1841
1818
1789
1777
1744
1811
1758
1762
1867
1871
1872
1866
1841
1809
1794
1788
1791
1793
1806
1805
1789
1777
1779
1796
1811
1829
1828
1830
1814
1802
1791
1840
1856
1872
1891
1904
1907
1901
1886
1927
1856
1840
1835
1838
1839
1845
1845
1834
1827
1826
1840
1856
1869
1870
1839
1839
1844
1853
1842
1845
1851
1863
1874
1892
1888
1888
1872
1853
1827
1809
1807
1809
1810
1823
1819
1817
1814
1820
1834
1808
1782
1776
1744
1779
1785
1790
1778
1777
1776
1792
1808
1821
1827
1834
1838
1821
1808
1801
1797
1808
1808
1803
1821
1827
1828
1826
1798
1771
1744
1735
1731
1734
1747
1765
1771
1788
1808
1825
1851
1869
1872
1866
1858
1840
1795
1793
1803
1803
1810
1827
1840
1847
1841
1834
1824
1796
1778
1773
1769
1770
1776
1783
1780
1782
1790
1805
1823
1818
1811
1819
1819
1826
1833
1830
1838
1851
1872
1888
1891
1888
1885
1861
1845
1826
1813
1814
1819
1816
1827
1833
1839
1789
1785
1789
1774
1773
1784
1792
1797
1804
1815
1825
1839
1856
1872
1890
1898
1891
1876
1856
1830
1808
1790
1779
1872
1888
1903
1910
1909
1904
1882
1856
1834
1820
1814
1817
1814
1822
1825
1826
1839
1849
1870
1885
1893
1893
1887
1837
1840
1843
1827
1825
1830
1842
1856
1866
1870
1869
1856
1837
1818
1806
1807
1812
1818
1824
1828
1840
1841
1856
1857
1830
1811
1793
1794
1789
1796
1794
1799
1804
1812
1839
1855
1866
1870
1871
1856
1840
1808
1799
1798
1798
1799
1810
1899
1897
1894
1882
1856
1827
1814
1808
1810
1813
1818
1824
1803
1776
1770
1776
1792
1807
1810
1809
1809
1795
1776
1801
1808
1823
1840
1853
1859
1855
1842
1825
1797
1782
1779
1779
1784
1792
1799
1806
1803
1810
1831
1850
1863
1859
1819
1822
1825
1831
1834
1840
1842
1859
1871
1875
1887
1883
1873
1843
1811
1793
1793
1776
1795
1797
1807
1799
1806
1813
1853
1818
1799
1792
1794
1796
1798
1801
1806
1815
1825
1839
1855
1872
1872
1873
1869
1850
1824
1808
1801
1801
1805
1856
1865
1872
1871
1867
1814
1826
1794
1779
1775
1775
1766
1776
1783
1782
1788
1808
1826
1846
1845
1851
1853
1845
1787
1787
1808
1817
1835
1855
1876
1885
1878
1876
1858
1847
1835
1831
1829
1831
1834
1837
1830
1823
1827
1840
1853
1787
1776
1782
1780
1776
1799
1802
1795
1817
1834
1874
1857
1863
1857
1845
1827
1808
1795
1802
1797
1808
1808
1819
1819
1839
1834
1828
1818
1821
1826
1825
1833
1840
1834
1827
1823
1841
1840
1859
1861
1868
1857
1841
1821
1794
1783
1779
1834
1845
1862
1879
1875
1875
1867
1847
1840
1815
1810
1813
1822
1822
1830
1839
1853
1869
1883
1904
1915
1915
1906
1775
1778
1783
1803
1815
1835
1845
1872
1882
1875
1878
1861
1841
1810
1795
1782
1772
1786
1782
1789
1785
1776
1782
1855
1838
1818
1808
1808
1809
1817
1825
1834
1843
1854
1867
1891
1904
1903
1894
1887
1862
1830
1809
1793
1793
1787
1790
1907
1913
1899
1884
1870
1858
1853
1854
1855
1856
1859
1854
1849
1845
1865
1872
1892
1887
1882
1877
1866
1853
1827
1834
1858
1874
1893
1904
1901
1894
1877
1854
1839
1824
1823
1824
1821
1828
1831
1840
1847
1867
1886
1903
1901
1895
1886
1776
1808
1820
1773
1836
1847
1869
1887
1888
1888
1881
1869
1845
1823
1809
1814
1808
1811
1822
1822
1827
1838
1850
1858
1843
1833
1828
1827
1829
1840
1840
1846
1851
1872
1887
1901
1903
1904
1895
1883
1846
1852
1847
1847
1855
1857
1829
1837
1846
1841
1839
1833
1821
1815
1816
1827
1833
1833
1833
1835
1838
1850
1872
1886
1889
1894
1890
1870
1840
1823
1807
1792
1797
1807
1831
1840
1842
1846
1839
1818
1795
1786
1765
1786
1791
1791
1801
1803
1815
1827
1850
1871
1878
1826
1827
1834
1831
1818
1809
1808
1825
1840
1847
1854
1854
1839
1825
1809
1801
1798
1793
1797
1801
1808
1807
1810
1857
1835
1799
1780
1771
1773
1774
1777
1779
1776
1760
1768
1781
1797
1815
1822
1824
1825
1818
1807
1805
1808
1818
1808
1822
1840
1847
1847
1849
1841
1823
1810
1774
1808
1813
1818
1823
1806
1792
1793
1808
1825
1839
1844
1851
1840
1796
1806
1803
1802
1805
1814
1841
1857
1862
1857
1843
1840
1827
1823
1819
1821
1818
1823
1826
1810
1803
1799
1814
1826
1809
1806
1808
1810
1813
1819
1818
1813
1811
1815
1835
1851
1855
1853
1845
1836
1810
1806
