
1856
1841
1829
1809
1787
1772
1759
1766
1770
1783
1793
1808
1821
1829
1829
1818
1840
1837
1825
1808
1791
1774
1770
1765
1779
1786
1858
1870
1865
1850
1841
1819
1812
1807
1803
1813
1822
1835
1848
1858
1863
1855
1860
1862
1863
1853
1841
1825
1807
1819
1826
1839
1841
1835
1840
1851
1851
1831
1825
1805
1799
1786
1786
1798
1809
1830
1841
1856
1861
1868
1863
1871
1775
1765
1775
1782
1798
1809
1833
1846
1851
1862
1877
1875
1871
1858
1838
1809
1789
1776
1775
1786
1802
1815
1827
1841
1872
1855
1838
1824
1817
1815
1833
1843
1851
1867
1885
1883
1898
1901
1909
1918
1902
1879
1871
1856
1838
1826
1829
1853
1856
1866
1872
1862
1871
1840
1819
1793
1783
1787
1790
1807
1823
1840
1845
1872
1883
1899
1915
1916
1907
1895
1766
1776
1792
1808
1827
1831
1846
1858
1865
1865
1849
1839
1818
1807
1791
1792
1795
1808
1809
1827
1836
1829
1829
1813
1807
1790
1786
1791
1806
1811
1824
1840
1840
1837
1845
1847
1856
1851
1840
1829
1810
1803
1791
1795
1808
1823
1828
1838
1840
1833
1825
1832
1797
1781
1781
1787
1808
1821
1830
1840
1850
1843
1847
1855
1857
1854
1840
1833
1819
1813
1868
1872
1874
1884
1891
1885
1872
1851
1839
1822
1807
1798
1797
1808
1811
1823
1831
1838
1840
1851
1859
1868
1869
1782
1794
1801
1808
1819
1818
1820
1821
1829
1829
1798
1830
1825
1811
1805
1794
1790
1792
1808
1819
1829
1840
1846
1874
1866
1840
1818
1797
1785
1787
1798
1795
1808
1805
1789
1782
1790
1802
1808
1810
1809
1774
1796
1792
1793
1792
1811
1823
1829
1839
1835
1836
1829
1822
1812
1792
1790
1789
1793
1796
1807
1808
1818
1819
1825
1840
1847
1850
1841
1837
1863
1874
1846
1873
1873
1872
1889
1900
1893
1883
1874
1876
1863
1841
1834
1829
1830
1815
1838
1837
1824
1808
1804
1836
1823
1814
1821
1825
1831
1835
1838
1850
1858
1872
1886
1879
1890
1904
1873
1863
1840
1824
1830
1831
1835
1840
1837
1787
1806
1811
1821
1814
1813
1823
1827
1835
1806
1833
1815
1791
1774
1778
1784
1810
1814
1829
1839
1840
1840
1823
1797
1776
1773
1776
1802
1818
1811
1857
1861
1856
1852
1849
1842
1840
1838
1824
1798
1779
1771
1766
1782
1804
1825
1910
1905
1906
1892
1877
1872
1858
1859
1871
1898
1917
1931
1937
1945
1932
1907
1894
1872
1867
1853
1819
1814
1794
1975
1927
1925
1912
1900
1887
1883
1872
1866
1846
1819
1777
1760
1763
1783
1803
1837
1863
1877
1873
1865
1861
1867
1863
1806
1822
1849
1874
1898
1915
1919
1903
1911
1911
1915
1905
1895
1872
1844
1828
1822
1826
1851
1872
1893
1917
1931
1857
1825
1785
1765
1757
1771
1802
1819
1843
1872
1883
1874
1872
1872
1872
1869
1857
1841
1816
1802
1801
1811
1831
1830
1813
1794
1787
1769
1747
1718
1691
1681
1686
1709
1744
1779
1811
1841
1862
1866
1860
1866
1863
1860
1850
1838
1808
1837
1862
1890
1888
1883
1872
1872
1867
1855
1841
1820
1806
1803
1807
1821
1857
1875
1898
1918
1922
1918
1911
1904
1815
1806
1810
1829
1846
1873
1897
1905
1902
1885
1877
1875
1872
1870
1851
1822
1799
1779
1778
1791
1824
1850
1871
1861
1856
1840
1831
1803
1783
1778
1795
1813
1842
1866
1879
1904
1894
1891
1872
1878
1873
1872
1856
1819
1790
1776
1938
1907
1866
1842
1815
1808
1782
1770
1744
1728
1732
1749
1777
1814
1845
1873
1909
1931
1935
1949
1955
1963
1957
1943
1808
1839
1856
1881
1879
1870
1857
1853
1842
1839
1822
1801
1765
1729
1714
1728
1747
1782
1810
1842
1862
1855
1839
1755
1733
1712
1714
1729
1763
1789
1831
1845
1866
1860
1849
1852
1852
1843
1840
1813
1793
1774
1759
1771
1791
1808
1863
1869
1867
1861
1842
1796
1755
1728
1717
1742
1767
1795
1822
1842
1853
1821
1798
1773
1759
1744
1726
1710
1670
1824
1850
1874
1877
1874
1876
1875
1872
1866
1847
1823
1795
1770
1763
1776
1808
1824
1854
1879
1901
1891
1889
1890
1887
1726
1728
1743
1769
1794
1822
1840
1840
1815
1811
1807
1803
1790
1778
1757
1747
1738
1749
1763
1794
1827
1856
1872
1808
1787
1767
1757
1751
1763
1787
1815
1840
1872
1894
1895
1878
1871
1852
1843
1840
1818
1791
1772
1747
1745
1766
1904
1884
1886
1872
1866
1853
1831
1808
1793
1797
1808
1829
1863
1888
1914
1935
1948
1946
1942
1947
1943
1939
1919
1775
1807
1840
1867
1881
1886
1882
1894
1895
1894
1890
1872
1842
1821
1818
1819
1840
1878
1893
1929
1934
1942
1934
1925
1825
1817
1812
1831
1855
1877
1905
1923
1931
1910
1897
1876
1869
1853
1840
1814
1790
1744
1716
1719
1738
1774
1797
1883
1875
1865
1840
1821
1792
1775
1778
1789
1818
1842
1874
1902
1909
1897
1878
1861
1853
1844
1835
1808
1776
1750
1909
1911
1902
1890
1881
1881
1867
1849
1808
1776
1747
1744
1750
1778
1808
1839
1867
1891
1883
1872
1872
1872
1863
1856
1822
1841
1869
1899
1916
1915
1907
1898
1904
1878
1869
1849
1818
1770
1738
1715
1725
1750
1786
1819
1850
1841
1866
1776
1744
1727
1729
1735
1765
1790
1827
1862
1890
1890
1872
1858
1849
1843
1836
1810
1772
1714
1680
1665
1675
1706
1942
1943
1938
1936
1917
1897
1865
1835
1820
1819
1840
1859
1886
1917
1923
1930
1919
1910
1907
1905
1895
1879
1856
1823
1843
1872
1886
1869
1854
1838
1826
1818
1805
1778
1749
1722
1712
1717
1745
1776
1808
1837
1867
1872
1866
1856
1843
1676
1677
1697
1737
1775
1808
1850
1872
1872
1870
1857
1849
1841
1827
1801
1776
1738
1717
1724
1744
1775
1806
1830
1902
1872
1854
1847
1809
1809
1825
1846
1872
1901
1920
1921
1904
1893
1874
1847
1856
1842
1818
1787
1754
1744
1745
1902
1886
1872
1861
1855
1839
1815
1783
1749
1729
1719
1729
1762
1792
1824
1856
1877
1878
1881
1887
1889
1891
1887
1808
1832
1861
1890
1907
1915
1920
1918
1920
1922
1918
1903
1872
1837
1807
1796
1806
1824
1846
1870
1892
1907
1888
1860
1747
1717
1703
1711
1734
1765
1805
1840
1866
1879
1883
1878
1872
1872
1872
1847
1813
1794
1771
1765
1782
1806
1840
1850
1840
1825
1808
1789
1744
1717
1707
1712
1738
1773
1806
1840
1867
1867
1879
1885
1883
1887
1881
1857
1840
1815
1893
1907
1900
1891
1883
1882
1870
1854
1829
1779
1744
1726
1714
1737
1775
1810
1840
1866
1877
1879
1883
1877
1879
1878
1775
1776
1829
1857
1895
1857
1904
1915
1917
1917
1919
1914
1889
1863
1842
1836
1840
1856
1879
1904
1934
1937
1936
1872
1843
1819
1809
1808
1824
1854
1872
1902
1926
1936
1933
1922
1910
1906
1903
1885
1871
1844
1820
1810
1818
1835
1908
1891
1878
1869
1846
1828
1804
1777
1766
1762
1776
1810
1846
1872
1904
1919
1915
1902
1890
1875
1865
1857
1827
1775
1806
1837
1863
1884
1894
1879
1885
1882
1873
1863
1840
1814
1792
1783
1796
1813
1850
1868
1891
1908
1904
1888
1872
1775
1753
1755
1782
1808
1845
1869
1895
1904
1901
1888
1883
1840
1870
1851
1830
1803
1776
1821
1771
1781
1823
1852
1906
1899
1872
1841
1821
1813
1815
1840
1866
1893
1894
1939
1948
1937
1917
1905
1900
1874
1857
1830
1791
1767
1765
1901
1905
1907
1911
1919
1922
1904
1887
1853
1824
1797
1801
1813
1836
1858
1882
1905
1906
1894
1876
1866
1856
1840
1749
1779
1812
1842
1872
1887
1885
1873
1872
1870
1862
1847
1829
1806
1789
1778
1787
1806
1836
1860
1883
1906
1918
1899
1756
1728
1713
1711
1723
1756
1793
1823
1855
1869
1876
1874
1875
1871
1872
1856
1833
1799
1776
1759
1758
1778
1806
1835
1810
1799
1778
1761
1726
1687
1666
1658
1673
1705
1736
1776
1814
1840
1857
1859
1858
1854
1842
1825
1802
1775
1830
1826
1868
1855
1854
1850
1838
1830
1808
1782
1744
1739
1728
1744
1770
1799
1833
1862
1881
1891
1879
1871
1863
1856
1715
1738
1776
1808
1838
1862
1877
1878
1872
1865
1858
1851
1834
1796
1765
1744
1727
1739
1766
1795
1828
1853
1872
1758
1734
1690
1664
1651
1661
1686
1724
1759
1793
1835
1856
1847
1839
1837
1828
1809
1795
1773
1743
1725
1716
1726
1901
1904
1891
1883
1873
1858
1834
1808
1777
1760
1762
1783
1811
1840
1871
1937
1904
1891
1882
1872
1862
1847
1830
1771
1806
1835
1867
1862
1891
1884
1879
1876
1874
1861
1841
1807
1791
1774
1777
1795
1822
1855
1877
1904
1920
1918
1906
1779
1757
1746
1763
1790
1822
1847
1875
1894
1894
1874
1865
1855
1838
1824
1794
1767
1740
1734
1734
1750
1792
1821
1845
1833
1810
1783
1759
1744
1738
1744
1773
1805
1835
1858
1882
1887
1877
1862
1857
1841
1825
1808
1776
1747
1726
1872
1877
1861
1848
1837
1838
1821
1802
1777
1761
1744
1744
1762
1791
1819
1854
1877
1897
1895
1886
1870
1855
1845
1711
1739
1761
1801
1835
1854
1874
1881
1883
1883
1887
1872
1856
1833
1804
1783
1774
1776
1799
1831
1851
1882
1899
1890
1825
1805
1782
1767
1771
1789
1825
1855
1891
1920
1936
1936
1936
1937
1934
1925
1903
1869
1824
1792
1767
1767
1783
1889
1877
1872
1865
1855
1829
1792
1776
1757
1762
1776
1808
1840
1869
1888
1892
1894
1879
1872
1863
1851
1838
1808
1830
1863
1882
1882
1874
1859
1852
1840
1825
1803
1761
1746
1728
1731
1746
1781
1810
1845
1871
1890
1889
1887
1888
1885
1759
1771
1794
1824
1855
1887
1910
1926
1924
1915
1909
1903
1885
1857
1829
1792
1763
1750
1771
1793
1825
1844
1873
1906
1890
1854
1804
1774
1747
1761
1781
1809
1842
1877
1906
1920
1914
1910
1909
1903
1889
1867
1834
1806
1766
1758
1917
1903
1891
1883
1878
1872
1849
1819
1789
1767
1755
1759
1780
1810
1840
1877
1895
1907
1904
1899
1899
1890
1879
1746
1778
1817
1841
1872
1902
1907
1917
1934
1937
1936
1927
1902
1858
1835
1815
1809
1827
1854
1878
1901
1921
1915
1897
1763
1734
1719
1728
1741
1773
1801
1838
1856
1877
1870
1855
1840
1831
1825
1804
1778
1742
1712
1699
1702
1728
1761
1866
1865
1850
1830
1808
1792
1776
1775
1785
1808
1846
1870
1898
1917
1910
1899
1882
1877
1867
1840
1814
1783
1754
1867
1895
1893
1885
1878
1875
1865
1862
1840
1806
1776
1756
1752
1767
1792
1821
1851
1882
1901
1894
1879
1877
1873
1771
1776
1793
1826
1856
1882
1904
1903
1887
1872
1855
1841
1823
1802
1770
1744
1734
1729
1744
1781
1811
1848
1871
1895
1897
1861
1824
1797
1776
1781
1802
1839
1868
1885
1925
1933
1915
1899
1885
1871
1856
1830
1786
1745
1712
1678
1712
1883
1883
1889
1888
1882
1868
1840
1803
1776
1753
1748
1776
1797
1833
1856
1874
1891
1891
1891
1891
1885
1873
1856
1786
1814
1854
1862
1853
1834
1814
1806
1796
1776
1756
1740
1712
1712
1718
1744
1776
1807
1840
1870
1875
1874
1871
1863
1804
1793
1802
1826
1847
1885
1902
1922
1911
1909
1865
1898
1888
1874
1849
1825
1803
1797
1803
1819
1851
1874
1906
1862
1851
1835
1785
1744
1712
1695
1714
1738
1773
1808
1841
1866
1866
1855
1840
1833
1826
1808
1781
1744
1788
1712
1915
1915
1915
1904
1893
1885
1872
1850
1815
1797
1769
1761
1775
1798
1826
1851
1885
1904
1899
1888
1874
1869
1861
1761
1791
1818
1850
1873
1904
1918
1911
1910
1904
1903
1890
1870
1843
1826
1810
1808
1815
1847
1872
1899
1916
1936
1927
1791
1763
1743
1734
1744
1761
1795
1830
1858
1883
1903
1901
1899
1890
1883
1878
1855
1837
1808
1795
1779
1795
1822
1919
1904
1904
1886
1858
1821
1789
1776
1775
1799
1824
1850
1888
1911
1917
1910
1897
1885
1872
1857
1833
1796
1751
1870
1904
1920
1918
1914
1906
1902
1888
1866
1841
1808
1786
1776
1776
1803
1826
1861
1887
1910
1933
1936
1941
1942
1754
1739
1746
1775
1808
1840
1872
1898
1906
1909
1935
1905
1904
1886
1861
1827
1799
1776
1762
1778
1810
1840
1862
1898
1818
1793
1765
1740
1715
1714
1720
1754
1791
1821
1846
1875
1875
1867
1862
1856
1847
1840
1802
1783
1755
1735
1733
1905
1904
1885
1872
1863
1845
1817
1790
1776
1759
1757
1766
1799
1831
1857
1879
1904
1904
1891
1885
1876
1863
1862
1814
1850
1875
1895
1919
1918
1917
1916
1904
1890
1867
1826
1787
1762
1745
1755
1771
1807
1831
1859
1885
1884
1879
1872
1750
1739
1748
1766
1805
1838
1863
1891
1896
1890
1872
1867
1856
1839
1814
1778
1747
1723
1708
1715
1742
1779
1812
1880
1871
1849
1826
1794
1773
1761
1754
1783
1813
1847
1875
1895
1913
1902
1891
1891
1879
1865
1841
1821
1803
1782
1856
1882
1878
1871
1870
1863
1855
1840
1815
1792
1763
1811
1758
1779
1811
1839
1899
1894
1906
1904
1890
1885
1874
1722
1728
1760
1790
1821
1851
1875
1878
1867
1856
1843
1837
1815
1787
1753
1719
1709
1709
1725
1761
1791
1825
1853
1867
1809
1799
1773
1751
1741
1750
1776
1806
1837
1867
1883
1889
1879
1877
1871
1866
1853
1831
1804
1760
1743
1734
1744
1894
1889
1889
1879
1864
1837
1808
1776
1817
1770
1774
1826
1854
1885
1907
1910
1902
1897
1891
1885
1870
1849
1811
1797
1831
1865
1872
1855
1825
1804
1783
1763
1740
1711
1685
1664
1667
1682
1721
1757
1799
1835
1869
1885
1887
1890
1783
1757
1758
1777
1808
1840
1872
1898
1915
1904
1887
1872
1865
1851
1840
1808
1776
1712
1731
1739
1767
1801
1825
1867
1901
1881
1862
1834
1805
1781
1776
1793
1826
1851
1877
1911
1925
1931
1927
1919
1910
1904
1883
1865
1839
1808
1802
1882
1906
1969
1916
1917
1919
1907
1883
1904
1818
1798
1792
1799
1827
1852
1879
1904
1913
1891
1869
1843
1829
1808
1767
1795
1835
1863
1888
1888
1866
1840
1827
1824
1791
1765
1733
1699
1680
1680
1703
1735
1784
1819
1856
1878
1879
1872
1789
1777
1767
1779
1811
1838
1891
1902
1920
1930
1926
1910
1905
1902
1888
1858
1833
1807
1791
1781
1794
1823
1859
1898
1890
1874
1855
1819
1781
1760
1753
1758
1778
1813
1842
1872
1904
1913
1911
1909
1905
1908
1891
1867
1833
1790
1883
1911
1918
1899
1882
1867
1845
1826
1804
1764
1712
1675
1666
1663
1697
1740
1776
1821
1856
1875
1872
1859
1846
1735
1739
1759
1794
1888
1868
1898
1919
1924
1921
1910
1907
1898
1872
1842
1807
1776
1761
1753
1778
1806
1843
1879
1906
1839
1807
1773
1742
1730
1750
1776
1811
1849
1882
1904
1889
1876
1861
1846
1824
1803
1773
1723
1686
1665
1666
1695
1895
1882
1872
1857
1832
1802
1767
1744
1739
1756
1786
1821
1856
1890
1913
1922
1919
1920
1917
1907
1891
1868
1837
1830
1866
1893
1904
1892
1879
1872
1858
1841
1814
1776
1744
1725
1712
1740
1767
1802
1839
1872
1904
1905
1907
1904
1900
1821
1819
1840
1872
1892
1926
1951
1949
1923
1903
1884
1862
1840
1810
1771
1744
1723
1698
1693
1746
1789
1829
1872
1889
1870
1840
1797
1773
1745
1754
1774
1808
1840
1877
1910
1919
1918
1903
1897
1889
1872
1851
1815
1785
1759
1749
1904
1904
1894
1886
1878
1862
1840
1808
1779
1747
1733
1744
1770
1803
1840
1872
1904
1889
1918
1905
1894
1884
1872
1814
1853
1882
1918
1941
1941
1938
1935
1935
1921
1904
1870
1833
1807
1792
1791
1805
1837
1869
1904
1926
1936
1923
1911
1763
1744
1734
1745
1778
1813
1847
1882
1904
1918
1906
1902
1901
1887
1873
1845
1808
1776
1750
1749
1765
1793
1833
1879
1875
1865
1827
1790
1750
1719
1712
1728
1759
1793
1827
1872
1899
1888
1877
1861
1850
1838
1815
1791
1747
1722
1882
1919
1936
1969
1936
1933
1926
1935
1884
1857
1826
1805
1792
1797
1825
1864
1857
1919
1949
1949
1935
1923
1914
1712
1719
1744
1783
1822
1859
1900
1907
1902
1892
1878
1872
1855
1827
1799
1775
1754
1744
1760
1792
1825
1861
1893
1913
1854
1833
1790
1771
1761
1762
1791
1830
1863
1900
1919
1927
1909
1897
1878
1863
1842
1820
1794
1773
1746
1739
1746
1881
1873
1872
1858
1842
1810
1792
1773
1759
1774
1798
1836
1867
1899
1926
1936
1931
1922
1915
1897
1883
1851
1824
1763
1799
1847
1879
1894
1891
1889
1888
1878
1868
1840
1809
1775
1755
1749
1773
1808
1842
1870
1904
1905
1902
1886
1867
1725
1713
1728
1760
1801
1835
1872
1904
1920
1931
1935
1929
1923
1906
1887
1904
1808
1787
1780
1795
1822
1859
1881
1859
1841
1811
1767
1731
1709
1694
1705
1740
1776
1819
1853
1885
1872
1846
1826
1803
1775
1749
1725
1703
1680
1676
1856
1875
1877
1883
1875
1872
1859
1840
1809
1779
1759
1743
1751
1785
1818
1851
1879
1911
1920
1904
1895
1874
1866
1787
1822
1857
1887
1920
1943
1921
1911
1901
1876
1859
1840
1795
1763
1737
1723
1734
1765
1806
1845
1886
1917
1932
1923
1798
1744
1727
1727
1751
1785
1826
1840
1904
1923
1924
1920
1915
1907
1893
1873
1841
1785
1751
1739
1735
1765
1793
1872
1859
1856
1840
1808
1775
1744
1723
1715
1739
1773
1808
1849
1882
1901
1884
1872
1855
1837
1817
1787
1753
1719
1813
1857
1890
1883
1882
1866
1854
1845
1829
1797
1755
1724
1709
1699
1719
1761
1797
1839
1879
1906
1911
1911
1906
1770
1747
1749
1776
1809
1853
1889
1921
1925
1910
1899
1894
1877
1867
1818
1804
1776
1754
1752
